"Time (s)","X (hPa)"
0.000000000E0,1.008552094E3
1.040669000E0,1.008550720E3
2.081529000E0,1.008551712E3
3.122353000E0,1.008549271E3
4.163126000E0,1.008548737E3
5.203931000E0,1.008545380E3
6.244508000E0,1.008545380E3
7.285526000E0,1.008545532E3
7.367957000E0,1.008554382E3
8.408729000E0,1.008555908E3
9.449587000E0,1.008557053E3
1.049033800E1,1.008557053E3
1.153168700E1,1.008554153E3
1.257055100E1,1.008546295E3
1.361152100E1,1.008537979E3
1.465211400E1,1.008524399E3
1.569319700E1,1.008511276E3
1.673414400E1,1.008490143E3
1.777519900E1,1.008464050E3
1.881594300E1,1.008438339E3
1.985685100E1,1.008419952E3
2.089790400E1,1.008410339E3
2.193881600E1,1.008410339E3
2.298002300E1,1.008421631E3
2.402104800E1,1.008438873E3
2.506232600E1,1.008452225E3
2.610359300E1,1.008464432E3
2.714474000E1,1.008485565E3
2.818615300E1,1.008505859E3
2.922695000E1,1.008523560E3
3.026810400E1,1.008542633E3
3.130910300E1,1.008563080E3
3.235010600E1,1.008573761E3
3.339088900E1,1.008584900E3
3.443160200E1,1.008605347E3
3.547264900E1,1.008625565E3
3.651342700E1,1.008655472E3
3.755421200E1,1.008692474E3
3.859505100E1,1.008726654E3
3.963601600E1,1.008752899E3
4.067679800E1,1.008777466E3
4.171771700E1,1.008798523E3
4.275834500E1,1.008813171E3
4.379955300E1,1.008827667E3
4.484020600E1,1.008848267E3
4.588099000E1,1.008869629E3
4.692214900E1,1.008891525E3
4.796268700E1,1.008894272E3
4.900408900E1,1.008894272E3
5.004444200E1,1.008885651E3
5.108525700E1,1.008877258E3
5.212604600E1,1.008877258E3
5.316699000E1,1.008882141E3
5.420769600E1,1.008925476E3
5.524851500E1,1.008992386E3
5.628876400E1,1.009076462E3
5.732823100E1,1.009173431E3
5.836885900E1,1.009278336E3
5.940989000E1,1.009391403E3
6.045071700E1,1.009513931E3
6.149082600E1,1.009637833E3
6.253081700E1,1.009748688E3
6.357169600E1,1.009834518E3
6.461265900E1,1.009893646E3
6.565374300E1,1.009893646E3
6.669475800E1,1.009893646E3
6.773569600E1,1.009862976E3
6.877673500E1,1.009825897E3
6.981768800E1,1.009781570E3
7.085870700E1,1.009746094E3
7.189926000E1,1.009676514E3
7.294011300E1,1.009592590E3
7.398063800E1,1.009503937E3
7.502119900E1,1.009405594E3
7.606173300E1,1.009304504E3
7.710191100E1,1.009212265E3
7.814249000E1,1.009137039E3
7.918287800E1,1.009085388E3
8.022342300E1,1.009045181E3
8.126402600E1,1.009011154E3
8.230474200E1,1.008978348E3
8.334523400E1,1.008947525E3
8.438590500E1,1.008913956E3
8.542652400E1,1.008900070E3
8.646709900E1,1.008900070E3
8.750757000E1,1.008922577E3
8.854777300E1,1.008951874E3
8.958821800E1,1.008981705E3
9.062903300E1,1.009005280E3
9.166906400E1,1.009023285E3
9.270953600E1,1.009030380E3
9.374979500E1,1.009039383E3
9.479022200E1,1.009047394E3
9.583051200E1,1.009047623E3
9.687062600E1,1.009048309E3
9.791097300E1,1.009052582E3
9.895141700E1,1.009053879E3
9.999146900E1,1.009055023E3
1.010316550E2,1.009062729E3
1.020722450E2,1.009064178E3
1.031124760E2,1.009064178E3
1.041524850E2,1.009056625E3
1.051928680E2,1.009041901E3
1.062326920E2,1.009029160E3
1.072728680E2,1.009013672E3
1.083127350E2,1.009008484E3
1.093530530E2,1.009004898E3
1.103929820E2,1.009002914E3
1.114329780E2,1.008994751E3
1.124729980E2,1.008983612E3
1.135128610E2,1.008970566E3
1.145529130E2,1.008967438E3
1.155925030E2,1.008967438E3
1.166325050E2,1.008975677E3
1.176724300E2,1.008984756E3
1.187127600E2,1.008997650E3
1.197522100E2,1.009004517E3
1.207919380E2,1.009004517E3
1.218317790E2,1.008998718E3
1.228717800E2,1.008995132E3
1.239113450E2,1.008991394E3
1.249513780E2,1.008988037E3
1.259915490E2,1.008986130E3
1.270313110E2,1.008983765E3
1.280712530E2,1.008974152E3
1.291111530E2,1.008964691E3
1.301512440E2,1.008962097E3
1.311911000E2,1.008958817E3
1.322313580E2,1.008955231E3
1.332713220E2,1.008952866E3
1.343118040E2,1.008946838E3
1.353516350E2,1.008939743E3
1.363915650E2,1.008932266E3
1.374320330E2,1.008926544E3
1.384718060E2,1.008924789E3
1.395122200E2,1.008922729E3
1.405514450E2,1.008918991E3
1.415915250E2,1.008912430E3
1.426317360E2,1.008908157E3
1.436714720E2,1.008906860E3
1.447117050E2,1.008906860E3
1.457518510E2,1.008916779E3
1.467920550E2,1.008934174E3
1.478324720E2,1.008948517E3
1.488731570E2,1.008959503E3
1.499135410E2,1.008961487E3
1.509543850E2,1.008961487E3
1.519947280E2,1.008956604E3
1.530350570E2,1.008952179E3
1.540756600E2,1.008945007E3
1.551162340E2,1.008941803E3
1.561567550E2,1.008941116E3
1.571973650E2,1.008939285E3
1.582381340E2,1.008934326E3
1.592792690E2,1.008934326E3
1.603200650E2,1.008940353E3
1.613606840E2,1.008952637E3
1.624013690E2,1.008960495E3
1.634421760E2,1.008971710E3
1.644831470E2,1.008975220E3
1.655237790E2,1.008975220E3
1.665645770E2,1.008969574E3
1.676052620E2,1.008961487E3
1.686460700E2,1.008960571E3
1.696867540E2,1.008960571E3
1.707276940E2,1.008963394E3
1.717685340E2,1.008968048E3
1.728091000E2,1.008980408E3
1.738500300E2,1.008986130E3
1.748905670E2,1.008986206E3
1.759315920E2,1.008986740E3
1.769721700E2,1.008986740E3
1.780129810E2,1.008986740E3
1.790536030E2,1.008980560E3
1.800942900E2,1.008972473E3
1.811350100E2,1.008962631E3
1.821758170E2,1.008954086E3
1.832170290E2,1.008948135E3
1.842574770E2,1.008948135E3
1.852981750E2,1.008954926E3
1.863390610E2,1.008965454E3
1.873800960E2,1.008973694E3
1.884207900E2,1.008973694E3
1.894617500E2,1.008972855E3
1.905029400E2,1.008968582E3
1.915439500E2,1.008966522E3
1.925851660E2,1.008965759E3
1.936265130E2,1.008965759E3
1.946677290E2,1.008966370E3
1.957087960E2,1.008966370E3
1.967500800E2,1.008959885E3
1.977917420E2,1.008944855E3
1.988326940E2,1.008931351E3
1.998720700E2,1.008915939E3
2.009135210E2,1.008897095E3
2.019549170E2,1.008884048E3
2.029942660E2,1.008874359E3
2.040355410E2,1.008874283E3
2.050771710E2,1.008874283E3
2.061190300E2,1.008878632E3
2.071600500E2,1.008884430E3
2.082017700E2,1.008890228E3
2.092430520E2,1.008890381E3
2.102825530E2,1.008890381E3
2.113239510E2,1.008887711E3
2.123653770E2,1.008883514E3
2.134068950E2,1.008882446E3
2.144485100E2,1.008882446E3
2.154880390E2,1.008889847E3
2.165297490E2,1.008903122E3
2.175711910E2,1.008918228E3
2.186121330E2,1.008931427E3
2.196521200E2,1.008944244E3
2.206936950E2,1.008949432E3
2.217353250E2,1.008949432E3
2.227771560E2,1.008948441E3
2.238188450E2,1.008945847E3
2.248603790E2,1.008943024E3
2.259020300E2,1.008941727E3
2.269418740E2,1.008941269E3
2.279836900E2,1.008938141E3
2.290254520E2,1.008938065E3
2.300650470E2,1.008937759E3
2.311069800E2,1.008936615E3
2.321472190E2,1.008936615E3
2.331887920E2,1.008939056E3
2.342303900E2,1.008944473E3
2.352705490E2,1.008944702E3
2.363099030E2,1.008944702E3
2.373514600E2,1.008939362E3
2.383929900E2,1.008934326E3
2.394324320E2,1.008926163E3
2.404732560E2,1.008898697E3
2.415134370E2,1.008872910E3
2.425547640E2,1.008853531E3
2.435943020E2,1.008836670E3
2.446356280E2,1.008833313E3
2.456770350E2,1.008833313E3
2.467185270E2,1.008849030E3
2.477582420E2,1.008859177E3
2.487994210E2,1.008864899E3
2.498409370E2,1.008868866E3
2.508823880E2,1.008884048E3
2.519239470E2,1.008899918E3
2.529654010E2,1.008919983E3
2.540070400E2,1.008947754E3
2.550485800E2,1.008970261E3
2.560902410E2,1.008981705E3
2.571317800E2,1.008987274E3
2.581734170E2,1.008987274E3
2.592128390E2,1.008983307E3
2.602540860E2,1.008980331E3
2.612952810E2,1.008971252E3
2.623367250E2,1.008960266E3
2.633782300E2,1.008952026E3
2.644173950E2,1.008945923E3
2.654585460E2,1.008938675E3
2.664996890E2,1.008927536E3
2.675406850E2,1.008918304E3
2.685818680E2,1.008905182E3
2.696229950E2,1.008892517E3
2.706641190E2,1.008877182E3
2.717052130E2,1.008861237E3
2.727445820E2,1.008847580E3
2.737857230E2,1.008837051E3
2.748269880E2,1.008821411E3
2.758680900E2,1.008802338E3
2.769095070E2,1.008781204E3
2.779504110E2,1.008752899E3
2.789917080E2,1.008714600E3
2.800329220E2,1.008669739E3
2.810739800E2,1.008622055E3
2.821135650E2,1.008576736E3
2.831546830E2,1.008530579E3
2.841957910E2,1.008489380E3
2.852370570E2,1.008448563E3
2.862784810E2,1.008415451E3
2.873198490E2,1.008382034E3
2.883610610E2,1.008351593E3
2.894022200E2,1.008334198E3
2.904436660E2,1.008331833E3
2.914851710E2,1.008331833E3
2.925260560E2,1.008350372E3
2.935672370E2,1.008380661E3
2.946084110E2,1.008425522E3
2.956493790E2,1.008483353E3
2.966904060E2,1.008545380E3
2.977315350E2,1.008611145E3
2.987727620E2,1.008680191E3
2.998137990E2,1.008742294E3
3.008548570E2,1.008789139E3
3.018958850E2,1.008822250E3
3.029370960E2,1.008843384E3
3.039783650E2,1.008850174E3
3.050193020E2,1.008850174E3
3.060603500E2,1.008833466E3
3.071015870E2,1.008812637E3
3.081426760E2,1.008792267E3
3.091837660E2,1.008766022E3
3.102248590E2,1.008746185E3
3.112651370E2,1.008730545E3
3.123056730E2,1.008717270E3
3.133445340E2,1.008705444E3
3.143840310E2,1.008701401E3
3.154249420E2,1.008689423E3
3.164662080E2,1.008675308E3
3.175072720E2,1.008656311E3
3.185483720E2,1.008636475E3
3.195895240E2,1.008618927E3
3.206304200E2,1.008608551E3
3.216713550E2,1.008608551E3
3.227124560E2,1.008617401E3
3.237533840E2,1.008644409E3
3.247944950E2,1.008667831E3
3.258357390E2,1.008691711E3
3.268770530E2,1.008713455E3
3.279180290E2,1.008721237E3
3.289590320E2,1.008721237E3
3.300000270E2,1.008714828E3
3.310412650E2,1.008705673E3
3.320822950E2,1.008698730E3
3.331234500E2,1.008698730E3
3.341645210E2,1.008700714E3
3.352054220E2,1.008704681E3
3.362449430E2,1.008711853E3
3.372863020E2,1.008715286E3
3.383274440E2,1.008720169E3
3.393689480E2,1.008720398E3
3.404097380E2,1.008720398E3
3.414510300E2,1.008720016E3
3.424923350E2,1.008717422E3
3.435337880E2,1.008708191E3
3.445748750E2,1.008699493E3
3.456163800E2,1.008685913E3
3.466575820E2,1.008675842E3
3.476987850E2,1.008667450E3
3.487398640E2,1.008665466E3
3.497810690E2,1.008665466E3
3.508225480E2,1.008673172E3
3.518631700E2,1.008673172E3
3.529041730E2,1.008671494E3
3.539434050E2,1.008664169E3
3.549844650E2,1.008643646E3
3.560256800E2,1.008620377E3
3.570646280E2,1.008594666E3
3.581057660E2,1.008576508E3
3.591471090E2,1.008558197E3
3.601879600E2,1.008543015E3
3.612292890E2,1.008527832E3
3.622701650E2,1.008523865E3
3.633116780E2,1.008514252E3
3.643527970E2,1.008499374E3
3.653941420E2,1.008484802E3
3.664352530E2,1.008468246E3
3.674764480E2,1.008444901E3
3.685175700E2,1.008415070E3
3.695587460E2,1.008384857E3
3.705996450E2,1.008361282E3
3.716410260E2,1.008343277E3
3.726818700E2,1.008330078E3
3.737231650E2,1.008328247E3
3.747642890E2,1.008328247E3
3.758052370E2,1.008332062E3
3.768459900E2,1.008343582E3
3.778867670E2,1.008355713E3
3.789276460E2,1.008371506E3
3.799685340E2,1.008389435E3
3.810089950E2,1.008405838E3
3.820498310E2,1.008417969E3
3.830905490E2,1.008421173E3
3.841317160E2,1.008421173E3
3.851724470E2,1.008418198E3
3.862131050E2,1.008403549E3
3.872538330E2,1.008372955E3
3.882948320E2,1.008342896E3
3.893358190E2,1.008302460E3
3.903766530E2,1.008251801E3
3.914175000E2,1.008200302E3
3.924585870E2,1.008153458E3
3.934992470E2,1.008107300E3
3.945400900E2,1.008065186E3
3.955814080E2,1.008031998E3
3.966204260E2,1.008014526E3
3.976613280E2,1.008012924E3
3.987023630E2,1.008012924E3
3.997435430E2,1.008021927E3
4.007845190E2,1.008038864E3
4.018257830E2,1.008055191E3
4.028666240E2,1.008078995E3
4.039076780E2,1.008109970E3
4.049466990E2,1.008155136E3
4.059878180E2,1.008212204E3
4.070288420E2,1.008284683E3
4.080699910E2,1.008359299E3
4.091111090E2,1.008443527E3
4.101521370E2,1.008524094E3
4.111931730E2,1.008601151E3
4.122343190E2,1.008667374E3
4.132753930E2,1.008729248E3
4.143165920E2,1.008784790E3
4.153576260E2,1.008834000E3
4.163991680E2,1.008874969E3
4.174403720E2,1.008908844E3
4.184817790E2,1.008936615E3
4.195231960E2,1.008955841E3
4.205643230E2,1.008971329E3
4.216057650E2,1.008971329E3
4.226451220E2,1.008969955E3
4.236864570E2,1.008969955E3
4.247277210E2,1.008971176E3
4.257693260E2,1.008972855E3
4.268077530E2,1.008983307E3
4.278485060E2,1.008994522E3
4.288900550E2,1.009000015E3
4.299296780E2,1.009003754E3
4.309711350E2,1.009005966E3
4.320127650E2,1.009005966E3
4.330545980E2,1.009001999E3
4.340959730E2,1.009000702E3
4.351374210E2,1.008999863E3
4.361785910E2,1.008993683E3
4.372200220E2,1.008993530E3
4.382610530E2,1.008992767E3
4.393021980E2,1.008992767E3
4.403432850E2,1.008992767E3
4.413846240E2,1.008991928E3
4.424255010E2,1.008989182E3
4.434667670E2,1.008982544E3
4.445079480E2,1.008976364E3
4.455491080E2,1.008969269E3
4.465903080E2,1.008964844E3
4.476296910E2,1.008961716E3
4.486688320E2,1.008955841E3
4.497101310E2,1.008949356E3
4.507503760E2,1.008941727E3
4.517908830E2,1.008930969E3
4.528322810E2,1.008919754E3
4.538734360E2,1.008908844E3
4.549146970E2,1.008893204E3
4.559558450E2,1.008880310E3
4.569969420E2,1.008867340E3
4.580378310E2,1.008852615E3
4.590789710E2,1.008842392E3
4.601198620E2,1.008833771E3
4.611588600E2,1.008825912E3
4.621997830E2,1.008817749E3
4.632405790E2,1.008814468E3
4.642817800E2,1.008814468E3
4.653224630E2,1.008815765E3
4.663630960E2,1.008816605E3
4.674040340E2,1.008816605E3
4.684446210E2,1.008821945E3
4.694854280E2,1.008822250E3
4.705260450E2,1.008823090E3
4.715666930E2,1.008827820E3
4.726072110E2,1.008836670E3
4.736477360E2,1.008845749E3
4.746881440E2,1.008856888E3
4.757286090E2,1.008867798E3
4.767692650E2,1.008879700E3
4.778095240E2,1.008882523E3
4.788498850E2,1.008884048E3
4.798902810E2,1.008884048E3
4.809307390E2,1.008878937E3
4.819711030E2,1.008872528E3
4.830112860E2,1.008867569E3
4.840516510E2,1.008863297E3
4.850918750E2,1.008854904E3
4.861324910E2,1.008850784E3
4.871729220E2,1.008846207E3
4.882132450E2,1.008841705E3
4.892537690E2,1.008832932E3
4.902944290E2,1.008825684E3
4.913351340E2,1.008813400E3
4.923757960E2,1.008804169E3
4.934166530E2,1.008804169E3
4.944573790E2,1.008804245E3
4.954968500E2,1.008805923E3
4.965369410E2,1.008809586E3
4.975777550E2,1.008809586E3
4.986188510E2,1.008804703E3
4.996595460E2,1.008800507E3
5.007000220E2,1.008798752E3
5.017410030E2,1.008798752E3
5.027813290E2,1.008803101E3
5.038219020E2,1.008804932E3
5.048625600E2,1.008806152E3
5.059031980E2,1.008809128E3
5.069438650E2,1.008811798E3
5.079846110E2,1.008819351E3
5.090249640E2,1.008826675E3