,Time (s),Acceleration x (m/s^2),Acceleration y (m/s^2),Acceleration z (m/s^2)
0,1.55965320005e+18,-1.740637779,4.783761024,7.807730198
1,1.5596532001e+18,-0.2585816681,-2.123721838,-2.889889717
2,1.55965320016e+18,4.834040642,7.776604652,1.778946161
3,1.55965320021e+18,5.614574432,0.08858817071,-10.34326744
4,1.55965320026e+18,2.063864946,-2.150058746,-3.658451796
5,1.55965320031e+18,2.025556564,-6.507638931,10.69761944
6,1.55965320036e+18,3.198751211,-17.83016396,5.700768471
7,1.55965320042e+18,-6.80452919,-28.79594231,7.594639778
8,1.55965320047e+18,-17.15976715,-6.601015568,5.478100777
9,1.55965320052e+18,-7.570696831,-14.19565487,12.59867382
10,1.55965320057e+18,-6.651295185,-9.823709488,14.30579185
11,1.55965320062e+18,-6.548341751,-4.108575344,8.265036583
12,1.55965320068e+18,-4.963331699,-0.3806896806,5.473312378
13,1.55965320073e+18,-3.77337718,4.053507328,4.771789551
14,1.55965320078e+18,-0.986441195,2.308080912,1.953728199
15,1.55965320083e+18,5.229096413,-1.814860344,-9.205986977
16,1.55965320088e+18,8.801354408,2.597788095,-21.64424515
17,1.55965320094e+18,4.869955063,5.06867981,-0.8882759809
18,1.55965320099e+18,-1.446141958,-13.08231735,16.21163559
19,1.55965320104e+18,-5.073468208,-25.81986046,27.19177818
20,1.55965320109e+18,-3.0096035,-24.03851891,-3.237059593
21,1.55965320114e+18,-1.601769805,-13.92510223,11.45181656
22,1.5596532012e+18,-10.32171917,-1.216291547,10.40073013
23,1.55965320125e+18,-3.62732625,-2.86355257,14.76549244
24,1.5596532013e+18,-7.491685867,-4.024775982,6.330462456
25,1.55965320135e+18,-5.401484013,-3.380716085,15.73517418
26,1.5596532014e+18,-4.139701366,-0.5530774593,10.18524456
27,1.55965320146e+18,0.4597007632,1.537124395,8.672063828
28,1.55965320151e+18,-2.746233225,1.142069101,7.376760483
29,1.55965320156e+18,-2.408640385,0.04788549617,-1.280937076
30,1.55965320161e+18,-5.047131062,-8.217150688,-5.806116581
31,1.55965320166e+18,-4.838829517,-5.413455486,-2.492439985
32,1.55965320172e+18,11.05436707,-0.634482801,5.355992794
33,1.55965320177e+18,-1.077423692,-8.794171333,12.33530426
34,1.55965320182e+18,-6.730306625,-19.24996948,3.742251635
35,1.55965320187e+18,-12.30178356,-25.18058777,18.84773064
36,1.55965320192e+18,12.44544029,-8.097437859,18.25634575
37,1.55965320198e+18,1.228263021,-1.142069101,19.91078949
38,1.55965320203e+18,-6.835654736,0.2394274771,14.95224571
39,1.55965320208e+18,-10.95141315,0.8068706393,10.38397026
40,1.55965320213e+18,-6.656084061,-3.378321648,10.10862827
41,1.55965320218e+18,-10.49171257,-6.019207001,8.612206459
42,1.55965320224e+18,-4.592218876,0.7518022656,7.000859737
43,1.55965320229e+18,-1.862745762,-0.1005595401,8.085466385
44,1.55965320234e+18,-1.996825218,0.1292908341,2.109356165
45,1.55965320239e+18,-3.644086361,-2.980872154,4.39109993
46,1.55965320244e+18,-7.077476501,-3.660846233,0.009577099234
47,1.5596532025e+18,-1.956122518,-0.2537931204,-1.802888989
48,1.55965320255e+18,-1.970488191,-3.41423583,-4.958543301
49,1.5596532026e+18,-3.550709486,-2.794118643,-0.670396924
50,1.55965320265e+18,-1.154040456,-7.450983047,9.33767128
51,1.5596532027e+18,-9.613013268,-8.772623062,11.68645573
52,1.55965320276e+18,5.49246645,-16.26909637,15.00013161
53,1.55965320281e+18,-7.405491829,-14.79183006,22.88926697
54,1.55965320286e+18,-6.713546753,0.4405465722,16.87005997
55,1.55965320291e+18,-10.71437931,-4.333637238,9.921875
56,1.55965320296e+18,-9.117398262,-7.125361919,12.10545349
57,1.55965320302e+18,-8.147717476,-7.127756119,12.49571991
58,1.55965320307e+18,-12.23474407,-2.312869549,9.735121727
59,1.55965320312e+18,1.03911531,2.394274712,-13.15175152
60,1.55965320317e+18,6.847625732,2.468497276,-8.305739403
61,1.55965320322e+18,0.1221080124,-3.603383541,13.20442581
62,1.55965320327e+18,-9.00726223,-19.82220078,17.21483612
63,1.55965320333e+18,-7.058321953,-27.9507637,6.596227169
64,1.55965320338e+18,-15.85249329,-13.2618885,9.028810501
65,1.55965320343e+18,-10.29298782,-9.96257782,8.976136208
66,1.55965320348e+18,-6.091034889,-7.697593689,10.17566776
67,1.55965320353e+18,-5.399089813,-4.527573586,9.103033066
68,1.55965320359e+18,-5.363175392,-6.610592842,8.332076073
69,1.55965320364e+18,-5.858790398,-5.818087578,7.371972084
70,1.55965320369e+18,-7.072687626,-1.455719113,2.442160368
71,1.55965320374e+18,-4.28335762,2.669616461,4.702355862
72,1.55965320379e+18,-1.850774407,4.252232075,9.754275322
73,1.55965320385e+18,-2.899466753,2.190761566,7.812518597
74,1.5596532039e+18,2.042316437,3.481275558,-2.921015263
75,1.55965320395e+18,2.245829821,2.195549965,-9.905115128
76,1.559653204e+18,2.609759569,2.983266354,-5.741470814
77,1.55965320405e+18,-0.7565908432,0.0287312977,2.600182533
78,1.55965320411e+18,-1.874717116,-10.65691757,19.87966347
79,1.55965320416e+18,1.156434774,-24.46709442,8.58108139
80,1.55965320421e+18,-6.179623127,-22.52054977,7.814912796
81,1.55965320426e+18,-13.73116589,-13.91313076,5.779779434
82,1.55965320431e+18,-8.305739403,-7.846038342,4.640104771
83,1.55965320437e+18,-3.146077156,-12.70162773,8.686429024
84,1.55965320442e+18,-3.996044636,-3.883513689,9.323306084
85,1.55965320447e+18,-3.519583941,-4.094210148,10.19961071
86,1.55965320452e+18,-1.297696948,2.0375278,10.88676739
87,1.55965320457e+18,3.220299721,1.247417212,10.23073673
88,1.55965320463e+18,1.932179809,0.9888355136,4.094210148
89,1.55965320468e+18,-3.73267436,-4.065478802,5.073468208
90,1.55965320473e+18,-0.907430172,-0.8643332124,-0.5075862408
91,1.55965320478e+18,-3.174808502,5.820482254,-14.09270191
92,1.55965320483e+18,-7.501263142,2.573845387,-6.409473896
93,1.55965320489e+18,-4.685595989,-4.953754425,9.32570076
94,1.55965320494e+18,-5.789356709,-16.85808945,18.31141281
95,1.55965320499e+18,4.570670605,-17.48778343,-1.448536277
96,1.55965320504e+18,-10.54678059,-21.55805016,13.07992363
97,1.55965320509e+18,-6.969734192,-8.916279793,9.90750885
98,1.55965320515e+18,-4.098998547,-11.04478931,3.792531252
99,1.5596532052e+18,-3.440572977,-8.997684479,12.33769798
100,1.55965320525e+18,-4.49644804,-9.435836792,8.008849144
101,1.5596532053e+18,-6.584255695,-2.60736537,9.107821465
102,1.55965320535e+18,-5.219519138,-0.3399870098,6.481301785
103,1.55965320541e+18,-4.118152618,1.836408734,8.363202095
104,1.55965320546e+18,-8.935433388,0.6775797606,5.502043724
105,1.55965320551e+18,-1.575432777,-1.915419817,-2.083019018
106,1.55965320556e+18,5.102199554,2.250618219,-10.63297462
107,1.55965320561e+18,4.752635479,10.9992981,-7.465348721
108,1.55965320567e+18,-0.4189980924,5.370358467,0.4788549542
109,1.55965320572e+18,-3.634509087,-7.388731956,8.042368889
110,1.55965320577e+18,-5.449369431,-19.45348358,17.57876587
111,1.55965320582e+18,2.968900681,-20.99539566,-1.103760719
112,1.55965320587e+18,-13.02485466,-14.80140686,6.284971237
113,1.55965320593e+18,-10.92747021,-7.352818012,3.929004908
114,1.55965320598e+18,-3.64648056,-11.06873226,11.83968925
115,1.55965320603e+18,-9.052753448,-9.021627426,10.74550533
116,1.55965320608e+18,-7.185218811,-4.501236439,9.043175697
117,1.55965320613e+18,-2.528354168,0.3112557232,10.28341007
118,1.55965320619e+18,-1.450930476,4.180403709,10.63776302
119,1.55965320624e+18,-1.106154919,0.3543526828,7.283383846
120,1.55965320629e+18,-3.519583941,0.3543526828,3.428601503
121,1.55965320634e+18,-3.572257996,5.037554264,2.581028223
122,1.55965320639e+18,-6.615381241,0.4573064744,-2.528354168
123,1.55965320645e+18,-1.721483588,1.091789365,0.6991282701
124,1.5596532065e+18,-3.373533249,2.564268351,-16.6306324
125,1.55965320655e+18,-4.850800991,-7.594639778,0.2609759569
126,1.5596532066e+18,-8.281796455,-16.19248009,18.26113319
127,1.55965320665e+18,1.058269501,-8.669669151,0.7637736797
128,1.55965320671e+18,-8.514040947,-21.83339119,12.17728138
129,1.55965320676e+18,-13.45821857,-9.222746849,13.81496525
130,1.55965320681e+18,-9.431048393,-9.830892563,11.05915546
131,1.55965320686e+18,-10.50847244,-5.217124939,11.22914886
132,1.55965320691e+18,-6.081458092,-3.56268096,6.605803967
133,1.55965320697e+18,-3.565075159,-3.96731329,8.945011139
134,1.55965320702e+18,-3.785348415,2.044710636,7.089447498
135,1.55965320707e+18,-3.644086361,3.299310684,11.39914227
136,1.55965320712e+18,-11.10464668,1.596981287,2.734261751
137,1.55965320717e+18,-5.114171028,1.146857619,0.481249243
138,1.55965320723e+18,-4.664047241,1.170800328,10.06074238
139,1.55965320728e+18,-0.7805336118,3.22269392,-10.34326744
140,1.55965320733e+18,-2.207521439,-2.051893473,-12.45980644
141,1.55965320738e+18,2.420611858,1.115732074,-7.223526955
142,1.55965320743e+18,-2.619336605,-7.240286827,15.34251308
143,1.55965320749e+18,-4.206740856,-32.85902786,8.940221786
144,1.55965320754e+18,-7.319298267,-31.81512451,10.38875866
145,1.55965320759e+18,-8.312922478,-15.80460835,10.81733322
146,1.55965320764e+18,-4.517996788,-6.083852291,15.97220707
147,1.55965320769e+18,-4.144489765,-1.630501151,10.9945097
148,1.55965320775e+18,-5.018400192,0.3806896806,10.65212822
149,1.5596532078e+18,-8.166871071,0.8906702399,5.729499817
150,1.55965320785e+18,-10.41749001,-1.268965602,7.352818012
151,1.5596532079e+18,-15.2323761,-0.167599231,4.807703972
152,1.55965320795e+18,-3.007209063,1.951334,10.53959751
153,1.55965320801e+18,-1.625712633,2.547508478,-3.77337718
154,1.55965320806e+18,5.81090498,-0.5506832004,-8.277008057
155,1.55965320811e+18,7.29535532,-1.450930476,-2.399063349
156,1.55965320816e+18,-0.462095052,-4.336031914,-0.4142095447
157,1.55965320821e+18,5.456552505,-5.901887417,3.703943014
158,1.55965320827e+18,3.488458395,-21.10313797,-0.0837996155
159,1.55965320832e+18,-13.06316376,-30.35461617,15.75911713
160,1.55965320837e+18,-14.76070404,-10.72156239,16.43430138
161,1.55965320842e+18,-4.2426548,-7.182824612,17.41116714
162,1.55965320847e+18,-5.018400192,-1.508393168,13.12302017
163,1.55965320853e+18,-5.06867981,0.59378016,10.49889469
164,1.55965320858e+18,-0.3519583941,-0.6967339516,10.09905148
165,1.55965320863e+18,2.087807655,1.067846537,9.232323647
166,1.55965320868e+18,6.500456333,3.366350412,9.993702888
167,1.55965320873e+18,5.02558279,-0.3256213665,7.316903591
168,1.55965320879e+18,3.919427872,-3.462121487,4.549122334
169,1.55965320884e+18,-1.233051538,-4.161249638,0.02154847234
170,1.55965320889e+18,-4.975303173,0.9960182905,-6.72551775
171,1.55965320894e+18,-2.581028223,-1.50599885,-4.474899769
172,1.55965320899e+18,3.696760416,-12.21080112,16.01051521
173,1.55965320905e+18,-2.547508478,-15.00492001,-0.03112557158
174,1.5596532091e+18,7.292961121,-34.90373993,6.270605564
175,1.55965320915e+18,-5.631334305,-20.882864,9.56273365
176,1.5596532092e+18,-3.41423583,-11.86363125,12.96739197
177,1.55965320925e+18,-3.75422287,-4.161249638,15.00252628
178,1.5596532093e+18,-8.875576973,-2.82045579,10.48213482
179,1.55965320936e+18,-7.472531796,-0.6536370516,5.502043724
180,1.55965320941e+18,-3.057488918,-0.950527072,8.303344727
181,1.55965320946e+18,2.564268351,3.277762175,11.18126297
182,1.55965320951e+18,6.816500187,-0.1292908341,14.97140026
183,1.55965320956e+18,5.399089813,-4.66883564,11.3680172
184,1.55965320962e+18,-2.751021862,1.601769805,11.78940868
185,1.55965320967e+18,2.851581335,0.3304099143,0.04309694469
186,1.55965320972e+18,-1.680780888,-0.7541965842,-13.99693012
187,1.55965320977e+18,0.8044763207,-1.450930476,-10.93465328
188,1.55965320982e+18,-0.5818088055,-5.679219723,13.37681293
189,1.55965320988e+18,-3.196356773,-29.56929398,16.26670265
190,1.55965320993e+18,-8.631361008,-23.74162865,7.790970325
191,1.55965320998e+18,-14.17650127,-11.67687798,9.900326729
192,1.55965321003e+18,-1.146857619,-2.770175934,11.17886925
193,1.55965321008e+18,-1.661626697,-3.462121487,10.57790565
194,1.55965321014e+18,-0.5722316504,-2.260195494,9.246688843
195,1.55965321019e+18,-3.96731329,-7.027196407,14.16692448
196,1.55965321024e+18,-4.683201313,-4.268991947,13.64736652
197,1.55965321029e+18,-7.103813171,9.119792938,15.03125763
198,1.55965321034e+18,7.371972084,6.955368519,-5.607391834
199,1.5596532104e+18,5.904281616,7.743084908,-7.637736797
200,1.55965321045e+18,3.634509087,0.5578660369,-1.043903828
201,1.5596532105e+18,-1.872322917,-11.63378143,12.96499825
202,1.55965321055e+18,3.102980137,-27.76401138,10.771842
203,1.5596532106e+18,-1.0175668,-32.2508812,1.249811411
204,1.55965321066e+18,-8.030397415,-13.67849159,2.449343204
205,1.55965321071e+18,-12.22037888,-6.045543671,7.862798691
206,1.55965321076e+18,-2.710319042,-5.444581032,9.69681263
207,1.55965321081e+18,-2.111750364,-2.044710636,7.570696831
208,1.55965321086e+18,-3.251425266,-2.444554567,6.138920784
209,1.55965321092e+18,-0.2394274771,-1.12291491,7.134938717
210,1.55965321097e+18,-2.46131444,0.8619389534,11.14774323
211,1.55965321102e+18,-6.045543671,1.54909575,5.322473049
212,1.55965321107e+18,-5.399089813,-3.500429869,11.43745041
213,1.55965321112e+18,1.798100352,6.387925148,-13.72398281
214,1.55965321118e+18,16.46782303,4.221106529,-17.78946114
215,1.55965321123e+18,4.843617916,-4.120546818,0.06464541703
216,1.55965321128e+18,8.154899597,-33.08887863,8.123774529
217,1.55965321133e+18,-10.56832886,-33.62280273,3.083826065
218,1.55965321138e+18,-6.838048935,-15.88122463,6.318490982
219,1.55965321144e+18,-7.86758709,-12.23953247,8.097437859
220,1.55965321149e+18,-7.137333393,-5.006428719,8.528407097
221,1.55965321154e+18,-8.59305191,-1.0175668,7.498868465
222,1.55965321159e+18,-6.06230402,2.063864946,7.29535532
223,1.55965321164e+18,-2.700742006,1.862745762,7.872375488
224,1.5596532117e+18,2.90425539,1.898659945,10.92028713
225,1.55965321175e+18,-1.977671027,-0.8978530765,16.05361176
226,1.5596532118e+18,-1.520364523,-0.3016786277,12.08390522
227,1.55965321185e+18,-6.488484859,4.925023079,-8.121379852
228,1.5596532119e+18,-3.486064196,-2.499622822,-15.78784847
229,1.55965321196e+18,3.359167576,-4.213923454,0.4860377908
230,1.55965321201e+18,-5.355992794,-17.83495331,17.53087997
231,1.55965321206e+18,8.770228386,-14.509305,4.568276405
232,1.55965321211e+18,-3.007209063,-23.14545441,5.449369431
233,1.55965321216e+18,-7.154093266,-9.998491287,9.71117878
234,1.55965321222e+18,-8.521224022,-5.035160065,17.26990509
235,1.55965321227e+18,-10.41509533,-3.419024467,12.36403465
236,1.55965321232e+18,-4.872349262,-0.1173194647,13.4510355
237,1.55965321237e+18,-2.123721838,1.362342358,7.609005451
238,1.55965321242e+18,-1.872322917,2.324840784,7.659285069
239,1.55965321248e+18,-5.542746067,7.417463303,5.427821159
240,1.55965321253e+18,-4.125335693,3.591412306,7.958569527
241,1.55965321258e+18,3.153259993,2.655250788,-2.202732801
242,1.55965321263e+18,0.9936240315,-10.17566776,-2.300898075
243,1.55965321268e+18,5.049525738,1.702329397,-2.557085514
244,1.55965321274e+18,2.315263748,-13.51568127,-16.57795906
245,1.55965321279e+18,-3.035940409,-34.08968353,9.481328011
246,1.55965321284e+18,-5.482889175,-23.61712646,9.996097565
247,1.55965321289e+18,-0.05027977005,-15.28026199,12.63219357
248,1.55965321294e+18,-7.790970325,-9.447808266,11.56674194
249,1.559653213e+18,-14.07833576,-2.43976593,11.98334503
250,1.55965321305e+18,-8.657697678,1.934574008,7.482108593
251,1.5596532131e+18,-0.14844504,4.438985348,10.71198559
252,1.55965321315e+18,0.1580221355,1.838803053,11.12380123
253,1.5596532132e+18,-3.871542454,0.3208328187,13.87961102
254,1.55965321326e+18,-0.1963305324,0.4333637357,12.70402241
255,1.55965321331e+18,-3.301704884,1.338399649,6.677632332
256,1.55965321336e+18,2.106961727,-2.468497276,-6.991282463
257,1.55965321341e+18,-1.692752242,-27.36177254,16.4558506
258,1.55965321346e+18,3.342407703,4.793338299,-11.7032156
259,1.55965321352e+18,7.793364525,-16.33613777,19.81741333
260,1.55965321357e+18,-6.476513386,-54.43623352,2.767781734
261,1.55965321362e+18,-11.7175808,-23.64106941,4.685595989
262,1.55965321367e+18,0.004788549617,-12.49811459,9.249083519
263,1.55965321372e+18,-0.3926610649,-2.54511404,13.20681953
264,1.55965321378e+18,-8.490098,0.2537931204,10.84367085
265,1.55965321383e+18,-8.827691078,0.7685621977,5.324867249
266,1.55965321388e+18,-5.45176363,-1.403045058,1.283331275
267,1.55965321393e+18,-0.689551115,-2.494834423,-2.159635782
268,1.55965321398e+18,-4.089421272,0.7182824612,2.490045786
269,1.55965321404e+18,6.826077461,14.1693182,-2.286532402
270,1.55965321409e+18,5.600208759,13.86763954,-5.183605194
271,1.55965321414e+18,4.666441441,-4.735875607,7.963357925
272,1.55965321419e+18,-7.709564686,-51.50085068,8.341653824
273,1.55965321424e+18,-10.82212257,-20.37527847,-3.320859194
274,1.5596532143e+18,-6.691998005,-10.37199879,4.012804508
275,1.55965321435e+18,-0.7302538157,-4.889109135,5.248250484
276,1.5596532144e+18,-2.099778891,-9.632167816,7.637736797
277,1.55965321445e+18,-9.438231468,-10.70240879,8.657697678
278,1.5596532145e+18,-8.267431259,-4.415042877,9.979337692
279,1.55965321456e+18,-5.571477413,-0.3064671755,8.080677032
280,1.55965321461e+18,-4.048718929,2.940169573,5.806116581
281,1.55965321466e+18,-1.848380208,2.985660791,3.409447432
282,1.55965321471e+18,1.58979845,1.924996972,4.146883965
283,1.55965321476e+18,2.18357873,1.556278586,4.599401951
284,1.55965321482e+18,4.405465603,2.808484316,-6.732700825
285,1.55965321487e+18,-1.630501151,-0.3567469418,-0.943344295
286,1.55965321492e+18,-3.620143414,-9.17725563,2.264983892
287,1.55965321497e+18,3.639297724,-42.25655746,5.827664852
288,1.55965321502e+18,-7.905895233,-17.48060036,4.958543301
289,1.55965321508e+18,-1.551490068,-11.24112034,7.656890869
290,1.55965321513e+18,-8.523618698,-8.372778893,3.227482557
291,1.55965321518e+18,-6.344828129,-12.13179016,10.41030693
292,1.55965321523e+18,-6.622564316,-11.13577175,11.74631214
293,1.55965321528e+18,-6.689603806,-2.988054991,9.232323647
294,1.55965321534e+18,-3.861965179,-1.563461423,7.944203854
295,1.55965321539e+18,-1.829225898,0.29689008,5.162056446
296,1.55965321544e+18,0.3112557232,4.980091572,4.683201313
297,1.55965321549e+18,2.748627424,1.872322917,0.1245022863
298,1.55965321554e+18,0.4860377908,-0.3591412306,-3.687183142
299,1.55965321559e+18,-1.256994247,0.8667274714,-1.175588965
300,1.55965321565e+18,-3.723097324,3.830839634,8.485309601
301,1.5596532157e+18,2.092596292,-7.817307472,7.999272346
302,1.55965321575e+18,-3.213116884,-32.85902786,12.98654652
303,1.5596532158e+18,-4.910657406,-22.13746452,-4.374340057
304,1.55965321585e+18,-0.4980091453,-13.29780197,7.087053299
305,1.55965321591e+18,0.184359163,-6.241874218,8.387145042
306,1.55965321596e+18,-0.689551115,-11.18605232,13.8293314
307,1.55965321601e+18,-4.154066563,-11.92827702,17.22920227
308,1.55965321606e+18,-3.038334846,-4.867560863,14.31536865
309,1.55965321611e+18,-0.2442160249,1.395862222,9.560338974
310,1.55965321617e+18,0.4166038036,2.348783493,4.759818554
311,1.55965321622e+18,-1.065452337,1.264177084,1.144463301
312,1.55965321627e+18,-0.9984126091,-1.97288239,-2.154847383
313,1.55965321632e+18,1.247417212,-1.637683988,-4.197163582
314,1.55965321637e+18,2.592999697,1.426987767,-17.34652138
315,1.55965321643e+18,-1.496421814,0.8020820618,-2.595393896
316,1.55965321648e+18,-4.192375183,-26.028162,18.79984665
317,1.55965321653e+18,-1.685569525,-28.73129845,13.64257812
318,1.55965321658e+18,-3.445361376,-19.97543526,2.408640385
319,1.55965321663e+18,1.031932473,-11.80377483,12.70881081
320,1.55965321669e+18,3.742251635,-7.110996246,14.03763294
321,1.55965321674e+18,0.6751855016,-5.243461609,10.64255142
322,1.55965321679e+18,-0.8523618579,-1.982459545,12.87640953
323,1.55965321684e+18,2.58821106,-4.21871233,8.863605499
324,1.55965321689e+18,1.429382086,-1.204320192,7.800547123
325,1.55965321695e+18,-2.899466753,-7.910684109,7.40309763
326,1.559653217e+18,4.719115734,-1.369525194,3.392687321
327,1.55965321705e+18,1.551490068,-1.079817891,-15.68489456
328,1.5596532171e+18,-1.036720991,5.487678051,-17.23398972
329,1.55965321715e+18,-4.024775982,14.10227871,-7.120573044
330,1.55965321721e+18,3.620143414,-7.61379385,11.23633194
331,1.55965321726e+18,-13.97298813,-47.55508804,7.520417213
332,1.55965321731e+18,-11.44702816,-28.26680756,14.61225891
333,1.55965321736e+18,-3.680000305,-12.27305222,9.52203083
334,1.55965321741e+18,-3.43578434,-5.054314137,11.73673534
335,1.55965321747e+18,-7.688016415,-2.197944164,13.1158371
