,Time (s),Acceleration x (m/s^2),Acceleration y (m/s^2),Acceleration z (m/s^2)
0,1.55965381705e+18,-4.783761024,-4.38870573,4.972908974
1,1.5596538171e+18,-5.98329258,-4.970514297,5.463735104
2,1.55965381716e+18,-5.542746067,-4.70953846,4.786155224
3,1.55965381721e+18,-3.325647593,-4.587430477,5.487678051
4,1.55965381726e+18,-0.9170072675,-3.560286522,5.118959427
5,1.55965381731e+18,0.1963305324,-3.574652195,6.929031372
6,1.55965381736e+18,-1.235445857,-3.974496126,6.838048935
7,1.55965381742e+18,-11.3728056,-7.348029613,4.053507328
8,1.55965381747e+18,-7.113390446,-4.060689926,5.24106741
9,1.55965381752e+18,-7.594639778,-8.272219658,4.465322495
10,1.55965381757e+18,-4.649681568,-9.198803902,3.806896925
11,1.55965381762e+18,-5.473312378,-9.201197624,2.564268351
12,1.55965381768e+18,-7.649707794,-6.756643295,1.436564922
13,1.55965381773e+18,-10.01525116,-7.790970325,0.950527072
14,1.55965381778e+18,-8.803748131,-9.747093201,2.892283916
15,1.55965381783e+18,-7.225921154,-10.22834206,3.672817469
16,1.55965381788e+18,-6.220325947,-9.984126091,3.093403101
17,1.55965381794e+18,-5.243461609,-9.775823593,3.747040033
18,1.55965381799e+18,-3.263396502,-10.04398251,4.929811954
19,1.55965381804e+18,-1.041509509,-9.148524284,7.304932594
20,1.55965381809e+18,-4.829252243,-6.385530949,3.897879362
21,1.55965381814e+18,-4.953754425,-6.984099388,3.196356773
22,1.5596538182e+18,-5.456552505,-8.250671387,4.132518291
23,1.55965381825e+18,-5.461340904,-6.952973843,4.422225475
24,1.5596538183e+18,-5.952167034,-4.781366825,3.086220264
25,1.55965381835e+18,-6.258634567,-3.835628271,3.459727049
26,1.5596538184e+18,-4.527573586,-1.944151163,4.122941017
27,1.55965381846e+18,-4.427014351,-2.075836182,5.561900616
28,1.55965381851e+18,1.750214934,-3.074248791,7.209161282
29,1.55965381856e+18,-4.692778587,-2.286532402,4.012804508
30,1.55965381861e+18,-7.348029613,-2.205127001,5.458946705
31,1.55965381866e+18,-15.47419834,-3.926610708,-1.194743156
32,1.55965381872e+18,-12.9458437,-5.470917702,-1.834014535
33,1.55965381877e+18,-8.430241585,-8.418270111,1.199531674
34,1.55965381882e+18,-16.00093842,-7.656890869,0.1005595401
35,1.55965381887e+18,-11.8301115,-8.272219658,3.340013266
36,1.55965381892e+18,-16.29782867,-10.11820507,5.150084972
37,1.55965381898e+18,-14.8971777,-9.974549294,5.456552505
38,1.55965381903e+18,-9.804554939,-5.27937603,3.220299721
39,1.55965381908e+18,-2.22667551,-2.399063349,3.380716085
40,1.55965381913e+18,-2.018373728,1.000806928,1.563461423
41,1.55965381918e+18,2.253012657,1.963305354,0.5842030644
42,1.55965381924e+18,5.284164429,4.067873001,-1.692752242
43,1.55965381929e+18,6.632141113,5.755836487,-2.868341208
44,1.55965381934e+18,7.039167881,4.163643837,-3.387898922
45,1.55965381939e+18,3.028757572,0.6967339516,11.03281784
46,1.55965381944e+18,-18.34493446,6.684815407,-12.14615631
47,1.5596538195e+18,10.31692982,-57.26865768,27.4072628
48,1.55965381955e+18,-16.05840111,-14.02087307,4.479688168
49,1.5596538196e+18,-3.079037428,-9.974549294,6.356799603
50,1.55965381965e+18,-4.221106529,-4.019987583,7.388731956
51,1.5596538197e+18,-1.613741279,-5.202759266,10.61621475
52,1.55965381976e+18,-3.091008663,-4.149278164,9.821314812
53,1.55965381981e+18,-4.197163582,-4.407859802,7.010436535
54,1.55965381986e+18,-1.951334,-8.497281075,5.652883053
55,1.55965381991e+18,-1.743032098,-8.789382935,6.40468502
56,1.55965381996e+18,-3.718308687,-8.964164734,5.763019562
57,1.55965382001e+18,-5.288952827,-8.351230621,5.933012962
58,1.55965382007e+18,-5.267404556,-7.364789486,6.134131908
59,1.55965382012e+18,-4.905869007,-7.012830734,6.282577038
60,1.55965382017e+18,-5.116565228,-6.352011204,6.12934351
61,1.55965382022e+18,-5.935407162,-6.332856655,6.428627968
62,1.55965382027e+18,-5.53316927,-5.442186832,6.749460697
63,1.55965382033e+18,-6.627352715,-5.552323341,6.900300026
64,1.55965382038e+18,-6.222720146,-3.866753817,7.46774292
65,1.55965382043e+18,-5.904281616,-2.382303476,7.642525196
66,1.55965382048e+18,-7.968146324,-2.327235222,8.973741531
67,1.55965382053e+18,-8.279402733,-0.7996878028,10.61382008
68,1.55965382059e+18,-6.395108223,1.192348838,9.847652435
69,1.55965382064e+18,-5.566689014,3.0119977,7.714353561
70,1.55965382069e+18,-2.260195494,5.255433083,5.815693378
71,1.55965382074e+18,-1.041509509,4.484476566,4.063084126
72,1.55965382079e+18,-2.437371731,2.241041183,2.940169573
73,1.55965382085e+18,-5.200365067,-1.582615614,2.482862949
74,1.5596538209e+18,-5.942590237,-4.582642078,3.445361376
75,1.55965382095e+18,-8.497281075,-7.518023014,1.63289547
76,1.559653821e+18,-3.150865555,6.172440529,13.45343018
77,1.55965382105e+18,-2.882706881,3.270579338,5.312895775
78,1.55965382111e+18,-12.81655312,5.909070015,10.04398251
79,1.55965382116e+18,-10.57072353,3.917033672,12.15333939
80,1.55965382121e+18,-4.38870573,4.000833035,16.75513458
81,1.55965382126e+18,-1.819648862,4.472505569,14.08073044
82,1.55965382131e+18,2.083019018,8.564320564,9.545973778
83,1.55965382137e+18,12.96260357,15.02407455,1.108549237
84,1.55965382142e+18,19.34813499,21.98423195,1.204320192
85,1.55965382147e+18,13.17569447,11.24351406,9.957788467
86,1.55965382152e+18,-7.14930439,-3.972101927,2.233858347
87,1.55965382157e+18,-8.238699913,-36.5414238,18.98659897
88,1.55965382163e+18,-18.07438087,-2.964112282,2.88510108
89,1.55965382168e+18,2.786935806,-0.3543526828,1.54909575
90,1.55965382173e+18,3.239453793,4.345608711,3.0096035
91,1.55965382178e+18,2.202732801,8.676852226,3.474092722
92,1.55965382183e+18,1.058269501,9.445414543,3.208328247
93,1.55965382189e+18,0.2513988614,8.672063828,2.102173328
94,1.55965382194e+18,0.009577099234,7.814912796,2.578634024
95,1.55965382199e+18,-0.8212362528,6.627352715,2.710319042
96,1.55965382204e+18,-2.576239586,3.057488918,4.383917332
97,1.55965382209e+18,-5.17402792,0.627300024,4.453351021
98,1.55965382215e+18,-6.251451492,-3.261002302,7.259441376
99,1.5596538222e+18,-4.597007751,-4.963331699,8.372778893
100,1.55965382225e+18,-4.630527496,-10.22355366,11.66730118
101,1.5596538223e+18,-5.889915943,-11.28182316,15.08393097
102,1.55965382235e+18,-8.652909279,-9.529213905,13.36484241
103,1.55965382241e+18,-5.525986195,-7.020013809,13.30977345
104,1.55965382246e+18,-5.45176363,-6.057515144,10.14454269
105,1.55965382251e+18,-5.523591995,-4.32406044,9.098244667
106,1.55965382256e+18,-6.502850533,-4.403071404,9.299363136
107,1.55965382261e+18,-5.676825523,-3.85957098,8.588263512
108,1.55965382267e+18,-5.631334305,-3.172414064,7.970541
109,1.55965382272e+18,-4.917840481,-2.528354168,7.642525196
110,1.55965382277e+18,-3.399870157,-0.8379961848,7.158881664
111,1.55965382282e+18,-4.383917332,1.31445682,7.393520832
112,1.55965382287e+18,-6.265817165,3.612960577,8.842057228
113,1.55965382293e+18,-7.297749519,5.832453251,9.519637108
114,1.55965382298e+18,-8.162082672,7.003253937,9.050358772
115,1.55965382303e+18,-5.329655647,6.215537548,6.143709183
116,1.55965382308e+18,-5.609786034,3.272973776,7.36239481
117,1.55965382313e+18,-3.603383541,0.5770202279,3.64887476
118,1.55965382319e+18,-4.098998547,-5.011217117,5.779779434
119,1.55965382324e+18,-15.02407455,-2.935380936,-30.70657349
120,1.55965382329e+18,9.239506721,2.602576733,12.02644253
121,1.55965382334e+18,11.35604572,3.905062199,2.332023621
122,1.55965382339e+18,6.670449734,1.216291547,5.588237286
123,1.55965382345e+18,2.961717844,1.805283189,7.922655106
124,1.5596538235e+18,-1.027143836,5.487678051,9.399923325
125,1.55965382355e+18,-15.07674885,8.487704277,7.659285069
126,1.5596538236e+18,-9.811738014,0.09577099234,19.36728859
127,1.55965382365e+18,-5.432609558,8.698400497,17.08315086
128,1.55965382371e+18,4.221106529,8.739103317,11.02084732
129,1.55965382376e+18,14.57873917,14.59549904,3.718308687
130,1.55965382381e+18,21.27073669,25.35297585,3.677606106
131,1.55965382386e+18,15.48616982,7.745479107,20.03529167
132,1.55965382391e+18,-12.69683933,2.154847383,-25.92520714
133,1.55965382397e+18,-8.971347809,-20.5141468,2.60736537
134,1.55965382402e+18,-13.97298813,-3.672817469,0.1819648892
135,1.55965382407e+18,5.042342663,-0.9792584181,-0.3567469418
136,1.55965382412e+18,4.010410309,3.486064196,0.22266756
137,1.55965382417e+18,5.456552505,9.919480324,0.1915419847
138,1.55965382423e+18,1.936968327,10.4797411,-1.101366401
139,1.55965382428e+18,2.707924843,8.05194664,-1.043903828
140,1.55965382433e+18,1.786128998,4.491659641,3.478881359
141,1.55965382438e+18,1.041509509,0.483643502,6.684815407
142,1.55965382443e+18,-4.0702672,-4.331243038,9.706390381
143,1.55965382449e+18,-2.48046875,-10.06553173,13.70722294
144,1.55965382454e+18,-2.58581686,-12.17009926,14.79901218
145,1.55965382459e+18,-4.575459003,-10.41749001,11.02563572
146,1.55965382464e+18,-6.282577038,-9.445414543,9.368797302
147,1.55965382469e+18,-8.253065109,-7.89152956,7.474925995
148,1.55965382475e+18,-6.411868095,-6.878751755,7.671256542
149,1.5596538248e+18,-6.560312748,-6.002447128,7.142121792
150,1.55965382485e+18,-6.732700825,-6.031178474,7.065505028
151,1.5596538249e+18,-6.227508545,-5.794145107,6.93621397
152,1.55965382495e+18,-6.747066498,-6.179623127,7.285778046
153,1.55965382501e+18,-6.239480019,-5.17163372,7.937020779
154,1.55965382506e+18,-7.762238979,-5.054314137,8.590658188
155,1.55965382511e+18,-6.186806202,-3.450150013,8.794171333
156,1.55965382516e+18,-6.61777544,-2.106961727,9.510059357
157,1.55965382521e+18,-3.691971779,-0.6656084061,11.58829021
158,1.55965382527e+18,-1.517970204,-0.5961744189,11.20999432
159,1.55965382532e+18,4.719115734,0.6584255695,13.34568787
160,1.55965382537e+18,3.421418667,3.553103924,8.109408379
161,1.55965382542e+18,2.18357873,5.782173634,6.761432171
162,1.55965382547e+18,-9.220352173,3.998438835,2.171607256
163,1.55965382552e+18,-16.68809509,-5.327261448,0.7757450342
164,1.55965382558e+18,-12.28741837,-10.38157558,9.811738014
165,1.55965382563e+18,-4.266597748,-0.8786988258,3.416630268
166,1.55965382568e+18,-32.23412323,-21.29228592,-43.46566391
167,1.55965382573e+18,8.231516838,14.08551884,-4.685595989
168,1.55965382578e+18,-0.02633702382,-0.9696813226,-1.623318315
169,1.55965382584e+18,-5.298530102,3.344801903,1.386285067
170,1.55965382589e+18,-5.944984436,2.58821106,5.102199554
171,1.55965382594e+18,-9.287391663,3.256213665,4.108575344
172,1.55965382599e+18,-12.07672215,-0.8236305118,4.637710094
173,1.55965382604e+18,-21.1151104,-3.272973776,4.132518291
174,1.5596538261e+18,-20.67456245,-8.353624344,9.739910126
175,1.55965382615e+18,-19.32419205,-7.860404015,10.69043732
176,1.5596538262e+18,-17.25314522,-8.039975166,9.450202942
177,1.55965382625e+18,-14.91393757,-7.410280704,7.343240738
178,1.5596538263e+18,-10.20200539,-4.474899769,6.756643295
179,1.55965382636e+18,-5.837242126,-1.628106833,2.99044919
180,1.55965382641e+18,-1.956122518,0.5578660369,1.853168726
181,1.55965382646e+18,0.8068706393,3.706337452,1.960911036
182,1.55965382651e+18,13.22597408,17.13343048,0.1436564922
183,1.55965382656e+18,16.98259163,26.4160347,-1.661626697
184,1.55965382662e+18,12.75430202,4.846012115,21.43354797
185,1.55965382667e+18,7.44140625,-77.85224152,-17.85889626
186,1.55965382672e+18,-29.39451218,-12.40952587,4.32406044
187,1.55965382677e+18,3.778165579,-5.887521744,-0.9194015265
188,1.55965382682e+18,4.300117493,3.37113905,-1.429382086
189,1.55965382688e+18,3.091008663,9.287391663,-1.110943556
190,1.55965382693e+18,3.474092722,11.88518047,-0.5435003638
191,1.55965382698e+18,4.048718929,11.95461369,-1.810071707
192,1.55965382703e+18,4.800520897,11.88996887,-1.733454943
193,1.55965382708e+18,5.193181992,7.683228016,1.132491946
194,1.55965382714e+18,3.323253393,6.040755272,5.820482254
195,1.55965382719e+18,3.615355015,2.413429022,8.3153162
196,1.55965382724e+18,0.2346389294,-2.071047783,9.821314812
197,1.55965382729e+18,-2.46131444,-5.640911579,9.201197624
198,1.55965382734e+18,-2.535537004,-7.834067345,9.646533012
199,1.5596538274e+18,-4.118152618,-9.524425507,11.56195259
200,1.55965382745e+18,-5.365570068,-9.739910126,9.641744614
201,1.5596538275e+18,-7.57309103,-10.36721039,8.140534401
202,1.55965382755e+18,-6.83086586,-7.86758709,5.925830364
203,1.5596538276e+18,-4.656864643,-5.777385235,5.569083214
204,1.55965382766e+18,-5.748653889,-5.691191196,6.026389599
205,1.55965382771e+18,-8.35601902,-7.472531796,6.203566074
206,1.55965382776e+18,-9.395133972,-8.6888237,5.856396198
207,1.55965382781e+18,-7.245075703,-7.343240738,5.636122704
208,1.55965382786e+18,-6.653689861,-5.777385235,5.257827282
209,1.55965382792e+18,-8.042368889,-4.802915096,5.427821159
210,1.55965382797e+18,-8.348835945,-5.095016956,8.102226257
211,1.55965382802e+18,-6.423839092,-3.713520288,8.60741806
212,1.55965382807e+18,-8.178842545,-2.413429022,8.080677032
213,1.55965382812e+18,-6.883540154,0.634482801,7.151699066
214,1.55965382818e+18,-6.423839092,1.838803053,6.237085819
215,1.55965382823e+18,-6.06230402,3.181991339,6.076669693
216,1.55965382828e+18,-7.201978683,4.400677204,4.992063046
217,1.55965382833e+18,-8.147717476,4.829252243,7.01522541
218,1.55965382838e+18,-6.917059898,8.353624344,5.77020216
219,1.55965382844e+18,-6.390319347,11.28900528,5.74386549
220,1.55965382849e+18,-6.900300026,11.33210278,7.762238979
221,1.55965382854e+18,-8.547560692,4.314483166,7.340846539
222,1.55965382859e+18,-6.500456333,-3.33043623,-0.09337671846
223,1.55965382864e+18,-12.39994907,-50.03316116,18.23719215
224,1.5596538287e+18,11.82053471,-4.166038036,-3.725491524
225,1.55965382875e+18,4.783761024,-1.687963724,0.4980091453
226,1.5596538288e+18,2.700742006,-2.839609861,5.38472414
227,1.55965382885e+18,-1.371919513,-2.633702278,2.185972929
228,1.5596538289e+18,-4.362368584,-6.352011204,5.358386993
229,1.55965382896e+18,-10.75268841,-5.628940105,4.613767624
230,1.55965382901e+18,-15.75432777,-7.000859737,5.772596359
231,1.55965382906e+18,-23.97626877,-15.45025539,11.07831001
232,1.55965382911e+18,-22.8725071,-7.577879906,9.859623909
233,1.55965382916e+18,-23.59557915,-6.16765213,11.17168617
234,1.55965382922e+18,-16.60668945,0.8020820618,6.759037971
235,1.55965382927e+18,-4.671230316,3.430995703,3.593806505
236,1.55965382932e+18,-0.5698373914,4.089421272,0.5123748183
237,1.55965382937e+18,2.90664959,6.289760113,0.6967339516
238,1.55965382942e+18,17.12145996,22.19492722,-0.59378016
239,1.55965382948e+18,21.01694489,22.49900055,0.4022381604
240,1.55965382953e+18,8.447001457,0.2681587934,26.26280022
241,1.55965382958e+18,27.07206535,-32.37538528,-7.139727592
242,1.55965382963e+18,-31.41767311,-8.643332481,8.770228386
243,1.55965382968e+18,5.997658253,-4.067873001,-1.879505754
244,1.55965382974e+18,4.49644804,3.770982742,1.9944309
245,1.55965382979e+18,5.885127544,8.58108139,-0.3974496126
246,1.55965382984e+18,2.303292274,9.771035194,-0.3687183261
247,1.55965382989e+18,0.9337671995,9.368797302,2.207521439
248,1.55965382994e+18,0.7302538157,6.567495823,4.482082367
249,1.55965383e+18,-3.261002302,3.998438835,6.325674057
250,1.55965383005e+18,-5.458946705,-1.829225898,10.73592854
251,1.5596538301e+18,-4.865166187,-3.0119977,11.44463348
252,1.55965383015e+18,-5.674431324,-4.702355862,12.02165413
253,1.5596538302e+18,-7.889135361,-4.927417755,10.92028713
254,1.55965383026e+18,-9.680052757,-4.522785187,9.900326729
255,1.55965383031e+18,-8.420664787,-3.727885962,8.38235569
256,1.55965383036e+18,-7.23071003,-3.445361376,7.869981289
257,1.55965383041e+18,-7.913078308,-3.603383541,7.079870701
258,1.55965383046e+18,-8.830085754,-3.316070557,6.076669693
259,1.55965383052e+18,-8.684034348,-3.749434233,5.854001999
260,1.55965383057e+18,-8.454184532,-4.319271564,5.691191196
261,1.55965383062e+18,-7.838855743,-4.716721535,5.751048088
262,1.55965383067e+18,-6.438204765,-4.300117493,5.734288216
263,1.55965383072e+18,-6.395108223,-3.557892323,6.974522591
264,1.55965383078e+18,-8.882759094,-3.035940409,9.35203743
265,1.55965383083e+18,-8.243488312,-3.876330853,11.65772438
266,1.55965383088e+18,-6.48609066,-0.943344295,11.60026169
267,1.55965383093e+18,-4.687990189,0.6440598965,10.61382008
268,1.55965383098e+18,-3.864359617,1.661626697,8.923461914
269,1.55965383104e+18,-3.165231228,3.361561775,8.442213058
270,1.55965383109e+18,-1.97288239,5.523591995,5.652883053
271,1.55965383114e+18,-1.956122518,3.395081758,6.878751755
272,1.55965383119e+18,-2.001613855,4.379128456,2.830032825
273,1.55965383124e+18,-1.216291547,2.032739401,1.733454943
274,1.5596538313e+18,-2.200338602,-5.695979595,4.259414673
275,1.55965383135e+18,-2.842004299,-8.425453186,3.074248791
276,1.5596538314e+18,-0.316044271,13.6114521,15.19167328
277,1.55965383145e+18,9.69681263,10.9945097,-3.914639235
278,1.5596538315e+18,5.456552505,1.127703428,9.687235832
279,1.55965383156e+18,-1.788523316,-3.002420664,8.480521202
280,1.55965383161e+18,-16.90118599,-14.81816673,1.905842781
281,1.55965383166e+18,-20.61949539,-14.72478962,6.924242973
282,1.55965383171e+18,-13.62581825,-12.28502369,15.80700207
283,1.55965383176e+18,-18.19648933,-7.86758709,12.01447105
284,1.55965383182e+18,-15.03843975,-8.645726204,8.609811783
285,1.55965383187e+18,-12.09108734,-5.267404556,5.700768471
286,1.55965383192e+18,-3.263396502,-0.9217957854,3.351984739
287,1.55965383197e+18,1.048692346,2.695953369,1.738243461
288,1.55965383202e+18,3.672817469,4.999245644,-0.3759011328
289,1.55965383208e+18,4.630527496,7.910684109,-0.2178790122
290,1.55965383213e+18,2.827638626,6.316096783,1.539518714
291,1.55965383218e+18,2.576239586,-1.063058019,13.66652107
292,1.55965383223e+18,-18.08635139,3.079037428,-19.49897385
293,1.55965383228e+18,11.33928585,-24.90524673,15.05041122
294,1.55965383234e+18,-9.756669998,-9.411893845,2.853975534
295,1.55965383239e+18,-0.14844504,-5.930618763,11.02324104
296,1.55965383244e+18,-3.067065954,-2.90664959,7.790970325
297,1.55965383249e+18,-4.364762783,-5.140508175,9.675264359
298,1.55965383254e+18,-5.504437923,-5.236279011,11.10943508
299,1.5596538326e+18,-5.502043724,-6.265817165,11.35365105
300,1.55965383265e+18,-5.880339146,-6.026389599,9.701601982
301,1.5596538327e+18,-6.352011204,-5.300924301,8.413481712
302,1.55965383275e+18,-5.418243885,-4.348002911,7.496474266
303,1.5596538328e+18,-6.402290821,-4.968120098,6.775797844
304,1.55965383286e+18,-7.738296032,-6.134131908,6.107795238
305,1.55965383291e+18,-5.954561234,-5.717528343,5.535563469
306,1.55965383296e+18,-5.70316267,-6.419050694,5.906675816
307,1.55965383301e+18,-4.898686409,-6.045543671,5.506832123
308,1.55965383306e+18,-4.977697372,-6.232297421,5.645699978
309,1.55965383312e+18,-4.498842239,-5.865973473,5.360781193
310,1.55965383317e+18,-4.209135056,-5.865973473,5.468523502
311,1.55965383322e+18,-4.211529255,-5.87555027,5.830059052
312,1.55965383327e+18,-4.017592907,-5.367964268,5.547534943
313,1.55965383332e+18,-4.790944099,-5.686402798,5.777385235
314,1.55965383338e+18,-5.032765865,-5.456552505,5.569083214
315,1.55965383343e+18,-5.379935265,-5.763019562,5.719922543
316,1.55965383348e+18,-5.245856285,-5.798933506,6.002447128
317,1.55965383353e+18,-5.209941864,-5.643305779,5.837242126
318,1.55965383358e+18,-5.631334305,-5.566689014,5.741470814
319,1.55965383364e+18,-6.320885658,-5.24106741,5.38711834
320,1.55965383369e+18,-7.319298267,-5.183605194,5.32007885
321,1.55965383374e+18,-6.198777676,-4.649681568,5.748653889
322,1.55965383379e+18,-6.80452919,-4.932206154,5.858790398
323,1.55965383384e+18,-6.850020409,-4.898686409,6.076669693
324,1.55965383389e+18,-8.142929077,-4.999245644,6.000052452
325,1.55965383395e+18,-5.700768471,-2.152452946,3.426207304
326,1.559653834e+18,-7.704776287,-4.66883564,11.59068394
327,1.55965383405e+18,-5.569083214,-7.802941799,2.899466753
328,1.5596538341e+18,-4.288146019,-7.417463303,-0.4237866402
329,1.55965383415e+18,-3.830839634,-5.66245985,1.965699673
330,1.55965383421e+18,-5.166844845,-3.780560017,2.365543604
331,1.55965383426e+18,-9.790189743,-3.651269197,4.336031914
332,1.55965383431e+18,-9.488511086,-4.348002911,6.373559475
333,1.55965383436e+18,-8.961771011,-3.004814863,5.193181992
334,1.55965383441e+18,-8.293767929,-5.154873848,6.12934351
335,1.55965383447e+18,-14.59549904,-9.634561539,7.829278469
336,1.55965383452e+18,-11.34167957,-7.012830734,3.323253393
