,Time (s),Acceleration x (m/s^2),Acceleration y (m/s^2),Acceleration z (m/s^2)
0,1.55965532205e+18,2.650462151,0.8044763207,9.002472878
1,1.5596553221e+18,2.482862949,0.6033572555,8.949799538
2,1.55965532216e+18,2.734261751,0.316044271,9.028810501
3,1.55965532221e+18,3.045517445,-1.419804931,9.488511086
4,1.55965532226e+18,1.063058019,-0.7637736797,9.385557175
5,1.55965532231e+18,1.807677507,-1.826831698,10.0966568
6,1.55965532236e+18,-2.506805658,-1.913025618,7.690410614
7,1.55965532242e+18,-4.206740856,-0.9912297726,7.470137596
8,1.55965532247e+18,-8.75586319,1.424593568,7.606611252
9,1.55965532252e+18,-6.294548512,2.300898075,8.039975166
10,1.55965532257e+18,-7.197190285,3.426207304,8.526012421
11,1.55965532262e+18,-7.005648136,4.719115734,7.170853138
12,1.55965532268e+18,-8.049551964,3.854782343,6.205960274
13,1.55965532273e+18,-6.715940952,3.210722446,4.53715086
14,1.55965532278e+18,-9.162889481,0.8858816624,7.108602047
15,1.55965532283e+18,-8.01124382,-2.001613855,6.349617004
16,1.55965532288e+18,-6.818894863,-2.504411459,8.995290756
17,1.55965532294e+18,-1.577827096,-1.197137356,11.66969585
18,1.55965532299e+18,-7.127756119,-0.05267404765,7.879558563
19,1.55965532304e+18,-5.672037125,0.462095052,7.269018173
20,1.55965532309e+18,-1.508393168,-1.098972082,12.01447105
21,1.55965532314e+18,-7.154093266,2.451737404,8.729525566
22,1.5596553232e+18,-4.170826912,1.158828974,7.810124397
23,1.55965532325e+18,-1.860351562,2.573845387,7.36239481
24,1.5596553233e+18,-1.54670155,3.593806505,6.993676662
25,1.55965532335e+18,-0.14844504,4.146883965,6.873962879
26,1.5596553234e+18,0.4884320498,4.067873001,7.937020779
27,1.55965532346e+18,-0.6656084061,3.502824068,7.802941799
28,1.55965532351e+18,2.214704275,5.49246645,8.028003693
29,1.55965532356e+18,1.867534399,5.619362831,8.839662552
30,1.55965532361e+18,2.33441782,5.018400192,9.56273365
31,1.55965532366e+18,2.243435383,4.00562191,8.37038517
32,1.55965532372e+18,-0.8116591573,3.232270956,8.05194664
33,1.55965532377e+18,-1.790917516,4.151672363,7.027196407
34,1.55965532382e+18,0.1101366431,3.715914488,7.424646378
35,1.55965532387e+18,-0.2609759569,1.9944309,7.975329399
36,1.55965532392e+18,-0.9146129489,1.924996972,6.87156868
37,1.55965532398e+18,-0.4094209969,3.991255999,8.882759094
38,1.55965532403e+18,-1.699935079,4.024775982,9.064723969
39,1.55965532408e+18,-1.78134048,2.724684715,9.914691925
40,1.55965532413e+18,-1.209108829,1.168406129,10.71198559
41,1.55965532418e+18,-0.8930644989,0.1963305324,11.34167957
42,1.55965532424e+18,-1.182771802,0.2298503816,11.1501379
43,1.55965532429e+18,-0.964892745,0.1580221355,10.68564892
44,1.55965532434e+18,-1.699935079,0.07182824612,9.58907032
45,1.55965532439e+18,-1.300091267,-0.1005595401,10.17806244
46,1.55965532444e+18,-0.3639297783,0.7278595567,10.25946712
47,1.5596553245e+18,-0.4213923812,0.5650488734,10.00327969
48,1.55965532455e+18,-1.640078187,1.048692346,9.081484795
49,1.5596553246e+18,-1.582615614,1.412622094,8.67445755
50,1.55965532465e+18,-2.719896078,1.819648862,8.820508003
51,1.5596553247e+18,-2.796513081,0.9098244309,8.940221786
52,1.55965532476e+18,-1.359948039,1.534730196,10.12299347
53,1.55965532481e+18,-5.269798756,-0.4884320498,10.43903828
54,1.55965532486e+18,-3.387898922,0.05985686928,10.01046276
55,1.55965532491e+18,-0.5458946824,0.5818088055,9.778218269
56,1.55965532496e+18,-1.740637779,0.7350423932,7.534782887
57,1.55965532502e+18,-1.393467903,0.7134938836,11.01845264
58,1.55965532507e+18,-2.564268351,0.5051919818,8.940221786
59,1.55965532512e+18,-0.2513988614,0.2705530524,13.42709351
60,1.55965532517e+18,-1.525153041,0.2561874092,9.466962814
61,1.55965532522e+18,0.9768640995,0.0837996155,7.913078308
62,1.55965532528e+18,1.479661822,0.3615354896,7.151699066
63,1.55965532533e+18,0.8906702399,-0.8571503758,8.784594536
64,1.55965532538e+18,-0.1460507661,-0.5387118459,7.101418972
65,1.55965532543e+18,0.3854782581,-0.3519583941,9.064723969
66,1.55965532548e+18,0.945738554,1.276148438,9.040781975
67,1.55965532554e+18,1.130097747,1.776551962,9.656110764
68,1.55965532559e+18,2.197944164,1.831620216,9.502876282
69,1.55965532564e+18,2.324840784,1.872322917,9.663292885
70,1.55965532569e+18,2.159635782,1.33600533,9.49569416
71,1.55965532574e+18,2.983266354,0.7613793612,9.641744614
72,1.5596553258e+18,2.770175934,1.264177084,10.01285744
73,1.55965532585e+18,1.388679385,0.5219519138,10.37439251
74,1.5596553259e+18,1.168406129,0.8188419938,10.07750225
75,1.55965532595e+18,0.4932205975,0.7709565163,9.708784103
76,1.559655326e+18,0.8667274714,1.608952641,10.10862827
77,1.55965532606e+18,0.3208328187,0.9217957854,10.61860847
78,1.55965532611e+18,1.228263021,0.6201171875,11.33928585
79,1.55965532616e+18,1.034326673,0.7853221297,10.35044956
80,1.55965532621e+18,1.664021015,1.211503029,9.809344292
81,1.55965532626e+18,1.977671027,1.764580488,8.849239349
82,1.55965532632e+18,2.363149166,2.590605259,8.442213058
83,1.55965532637e+18,1.723877907,2.432583094,8.815719604
84,1.55965532642e+18,4.292934895,1.640078187,7.388731956
85,1.55965532647e+18,4.939388752,1.834014535,7.12296772
86,1.55965532652e+18,5.308107376,2.9258039,4.881926537
87,1.55965532658e+18,5.832453251,2.487651587,5.229096413
88,1.55965532663e+18,5.147690773,3.711125851,4.585036278
89,1.55965532668e+18,6.014418125,2.921015263,5.672037125
90,1.55965532673e+18,5.391906738,2.604970932,3.857176781
91,1.55965532678e+18,5.317684174,2.384697676,4.142095566
92,1.55965532684e+18,5.712739468,3.019180536,4.393494129
93,1.55965532689e+18,6.143709183,3.170019865,4.563488007
94,1.55965532694e+18,7.575485706,3.950553417,4.788549423
95,1.55965532699e+18,10.32171917,4.362368584,5.8516078
96,1.55965532704e+18,11.92827702,4.798126698,9.31133461
97,1.5596553271e+18,15.5532093,6.601015568,10.36960411
98,1.55965532715e+18,20.78230476,8.272219658,11.40393066
99,1.5596553272e+18,39.69947052,18.94829178,5.06628561
100,1.55965532725e+18,30.81910515,18.03367805,-5.949772835
101,1.5596553273e+18,3.871542454,-6.682421207,20.76075745
102,1.55965532736e+18,3.452544212,-42.61809158,6.366376877
103,1.55965532741e+18,-7.223526955,-19.95627975,-4.829252243
104,1.55965532746e+18,0.4046324492,-2.178790092,-4.491659641
105,1.55965532751e+18,8.032792091,7.987300873,-0.4573064744
106,1.55965532756e+18,4.127729893,7.144515991,-0.2633702159
107,1.55965532762e+18,-0.2585816681,3.907456398,-0.943344295
108,1.55965532767e+18,0.5099805593,3.404658794,0.184359163
109,1.55965532772e+18,-0.5961744189,-2.154847383,8.253065109
110,1.55965532777e+18,-0.1005595401,-5.628940105,8.696005821
111,1.55965532782e+18,1.659232497,-7.666468143,13.51089287
112,1.55965532788e+18,3.143682718,-5.059102535,13.15414619
113,1.55965532793e+18,1.793311834,-3.950553417,16.72161484
114,1.55965532798e+18,-0.7733507752,-2.518777132,12.87401581
115,1.55965532803e+18,-4.223500729,-4.180403709,10.22594738
116,1.55965532808e+18,-11.56913567,-3.778165579,7.410280704
117,1.55965532814e+18,-12.13418484,-0.7278595567,-1.288119793
118,1.55965532819e+18,-14.76788712,0.1005595401,2.068653345
119,1.55965532824e+18,-12.85007286,2.909043789,1.120520592
120,1.55965532829e+18,-13.39357281,2.090201855,2.842004299
121,1.55965532834e+18,-12.45022869,1.242628574,2.614548206
122,1.5596553284e+18,-10.56354046,0.7182824612,2.923409462
123,1.55965532845e+18,-12.39037228,-0.4070267081,0.1699935049
124,1.5596553285e+18,-9.845257759,-1.101366401,1.189954638
125,1.55965532855e+18,-9.67047596,-1.78134048,1.304879785
126,1.5596553286e+18,-8.229122162,-2.22667551,2.264983892
127,1.55965532866e+18,-7.460560322,-1.364736676,2.051893473
128,1.55965532871e+18,-8.080677032,-1.374313712,2.18357873
129,1.55965532876e+18,-7.929838181,-0.1987248063,3.888302326
130,1.55965532881e+18,-11.30576611,0.1628106833,5.030371189
131,1.55965532886e+18,-12.08869362,1.556278586,5.497254848
132,1.55965532892e+18,-12.01207638,3.723097324,4.525179386
133,1.55965532897e+18,-13.21160793,5.209941864,4.024775982
134,1.55965532902e+18,-12.53881741,5.545140266,4.008016109
135,1.55965532907e+18,-10.18285084,4.257020473,3.313676357
136,1.55965532912e+18,-9.828497887,3.538738251,2.99044919
137,1.55965532918e+18,-6.890722752,4.024775982,3.050306082
138,1.55965532923e+18,-4.235472202,4.637710094,3.73267436
139,1.55965532928e+18,-3.792531252,7.529994488,7.793364525
140,1.55965532933e+18,-8.025609016,7.328875065,4.558699131
141,1.55965532938e+18,-8.712765694,6.0216012,6.371165276
142,1.55965532944e+18,-6.296942711,4.223500729,3.421418667
143,1.55965532949e+18,-5.49246645,5.121353626,2.724684715
144,1.55965532954e+18,-4.958543301,4.13730669,2.346389294
145,1.55965532959e+18,-3.914639235,5.643305779,2.557085514
146,1.55965532964e+18,-0.2944957912,6.59143877,0.9002473354
147,1.5596553297e+18,0.8140534163,6.08864069,1.386285067
148,1.55965532975e+18,0.2609759569,3.131711483,-0.6057515144
149,1.5596553298e+18,1.33600533,0.7470137477,-1.300091267
150,1.55965532985e+18,-1.814860344,-0.3256213665,-2.77975297
151,1.5596553299e+18,19.32658577,-23.59318352,58.30059052
152,1.55965532996e+18,-6.438204765,16.45106316,0.9002473354
153,1.55965533001e+18,-9.474145889,5.590631485,-3.0981915
154,1.55965533006e+18,-7.623371124,10.73832226,-6.732700825
155,1.55965533011e+18,-11.47815323,8.535589218,-6.72551775
156,1.55965533016e+18,-9.668081284,8.332076073,-2.949746609
157,1.55965533021e+18,-14.93788052,6.201171875,-2.683982134
158,1.55965533027e+18,-12.16291618,6.110189438,-1.54909575
159,1.55965533032e+18,-14.63859653,2.978477955,0.04309694469
160,1.55965533037e+18,-13.88439941,2.67201066,-1.108549237
161,1.55965533042e+18,-13.50131607,-0.1460507661,0.5123748183
162,1.55965533047e+18,-13.05119228,-0.4956148863,1.941756845
163,1.55965533053e+18,-14.14298153,-1.963305354,1.594586968
164,1.55965533058e+18,-10.37199879,-0.5411061049,2.047105074
165,1.55965533063e+18,-9.452596664,0.3591412306,2.846792698
166,1.55965533068e+18,-9.976943016,1.343188167,2.506805658
167,1.55965533073e+18,-10.19482231,1.39825654,2.377514839
168,1.55965533079e+18,-8.336864471,1.989642382,5.897099018
169,1.55965533084e+18,-7.192401409,0.8906702399,6.158074856
170,1.55965533089e+18,-5.521197796,0.9577099085,5.976109982
171,1.55965533094e+18,-1.723877907,1.381496549,6.905088425
172,1.55965533099e+18,-3.41423583,2.703136206,8.181237221
173,1.55965533105e+18,3.653663397,2.004008055,5.997658253
174,1.5596553311e+18,0.7015225291,1.843591571,10.63057995
175,1.55965533115e+18,4.826858044,1.726272106,3.952947617
176,1.5596553312e+18,6.057515144,1.359948039,7.218738556
177,1.55965533125e+18,5.942590237,2.911438227,3.969707727
178,1.55965533131e+18,8.303344727,1.450930476,5.949772835
179,1.55965533136e+18,7.051139355,3.933793545,5.34641552
180,1.55965533141e+18,6.431022167,3.146077156,4.951360226
181,1.55965533146e+18,7.249864101,2.14287591,5.681613922
182,1.55965533151e+18,6.993676662,2.995237827,4.383917332
183,1.55965533157e+18,5.952167034,2.264983892,3.359167576
184,1.55965533162e+18,5.226701736,2.494834423,4.187586784
185,1.55965533167e+18,5.693585396,2.650462151,4.292934895
186,1.55965533172e+18,6.991282463,2.628913641,5.791750908
187,1.55965533177e+18,7.951386452,2.645673752,7.029590607
188,1.55965533183e+18,10.30495834,3.110162973,8.590658188
189,1.55965533188e+18,12.63937664,3.131711483,11.76307201
190,1.55965533193e+18,18.057621,4.132518291,13.33371639
191,1.55965533198e+18,30.93642426,8.894730568,9.550762177
192,1.55965533203e+18,36.00510406,18.56999588,0.0287312977
193,1.55965533209e+18,21.97704887,3.189173937,-1.031932473
194,1.55965533214e+18,4.848406315,-7.331269264,9.213169098
195,1.55965533219e+18,-11.02802944,-35.746521,6.258634567
196,1.55965533224e+18,-0.8116591573,-9.665687561,-8.497281075
197,1.55965533229e+18,2.308080912,5.205153465,-3.981678963
198,1.55965533235e+18,6.268211365,5.844424725,-0.5674431324
199,1.5596553324e+18,4.108575344,5.616968632,1.999219418
200,1.55965533245e+18,0.06225114316,0.8882759809,4.034353256
201,1.5596553325e+18,1.197137356,-2.420611858,5.758230686
202,1.55965533255e+18,4.075055599,-6.572284222,9.519637108
203,1.55965533261e+18,7.879558563,-3.486064196,10.606637
204,1.55965533266e+18,6.65847826,0.3806896806,8.810931206
205,1.55965533271e+18,3.809291124,1.903448462,10.00327969
206,1.55965533276e+18,1.223474383,3.857176781,10.8197279
207,1.55965533281e+18,-2.853975534,0.4740664065,15.34251308
208,1.55965533287e+18,-4.817280769,0.5626545548,13.23555088
209,1.55965533292e+18,-9.864412308,2.169213057,12.72557068
210,1.55965533297e+18,-10.68325424,2.695953369,11.45660496
211,1.55965533302e+18,-8.588263512,1.67599237,9.055147171
212,1.55965533307e+18,-9.062330246,2.241041183,7.975329399
213,1.55965533313e+18,-10.40791225,1.261782765,5.444581032
214,1.55965533318e+18,-8.511647224,1.048692346,4.510813713
215,1.55965533323e+18,-7.144515991,0.629694283,4.802915096
216,1.55965533328e+18,-8.46376133,-0.2178790122,4.565882206
217,1.55965533333e+18,-8.669669151,-1.024749637,4.881926537
218,1.55965533339e+18,-8.109408379,-1.367130876,4.726298332
219,1.55965533344e+18,-6.383136749,-0.9385557175,5.604997158
220,1.55965533349e+18,-6.500456333,-0.08858817071,4.869955063
221,1.55965533354e+18,-7.398309231,0.1388679445,4.762212753
222,1.55965533359e+18,-7.453377247,0.2322446555,4.757423878
223,1.55965533365e+18,-8.245882034,0.2466102988,4.417437077
224,1.5596553337e+18,-9.581888199,0.4261809289,3.727885962
225,1.55965533375e+18,-10.96817303,0.3567469418,3.059883118
226,1.5596553338e+18,-10.70959091,-0.4166038036,3.895485163
227,1.55965533385e+18,-9.134158134,-0.6632141471,4.826858044
228,1.55965533391e+18,-7.776604652,-0.4477293789,5.018400192
229,1.55965533396e+18,-7.331269264,-0.02394274808,4.790944099
230,1.55965533401e+18,-8.071100235,-0.1268965602,4.92262888
231,1.55965533406e+18,-9.646533012,-0.3232271075,4.723904133
232,1.55965533411e+18,-9.828497887,0.5387118459,5.154873848
233,1.55965533417e+18,-10.70001411,0.6057515144,5.219519138
234,1.55965533422e+18,-7.458166122,0.2178790122,6.366376877
235,1.55965533427e+18,-5.449369431,0.2178790122,5.731894016
236,1.55965533432e+18,-3.636903524,-0.964892745,7.099024773
237,1.55965533437e+18,-3.404658794,-1.807677507,8.47812748
238,1.55965533443e+18,-2.600182533,-2.377514839,8.959376335
239,1.55965533448e+18,-2.011190891,-1.850774407,8.846845627
240,1.55965533453e+18,-1.455719113,-1.369525194,8.317710876
241,1.55965533458e+18,-3.301704884,-0.8523618579,7.422251701
242,1.55965533463e+18,-3.962524891,-0.1939362586,7.750267506
243,1.55965533469e+18,-5.06628561,-0.03591412306,8.475732803
244,1.55965533474e+18,-5.74386549,-0.277735889,9.323306084
245,1.55965533479e+18,-5.652883053,0.1580221355,9.124581337
246,1.55965533484e+18,-5.250644684,0.5411061049,8.214756966
247,1.55965533489e+18,-5.059102535,0.8547561169,7.348029613
248,1.55965533495e+18,-6.069486618,0.9888355136,6.991282463
249,1.559655335e+18,-8.557138443,1.553884387,5.827664852
250,1.55965533505e+18,-8.669669151,1.259388566,5.504437923
251,1.5596553351e+18,-8.707977295,0.648848474,5.257827282
252,1.55965533515e+18,-8.949799538,-0.1221080124,4.987274647
253,1.55965533521e+18,-8.746285439,0.2178790122,5.118959427
254,1.55965533526e+18,-7.676044941,0.6153286099,5.377541065
255,1.55965533531e+18,-7.115784645,1.043903828,5.870761871
256,1.55965533536e+18,-7.800547123,1.110943556,5.854001999
257,1.55965533541e+18,-8.643332481,0.8427847624,5.056708336
258,1.55965533547e+18,-8.827691078,1.501210332,5.669642925
259,1.55965533552e+18,-8.418270111,2.67201066,6.186806202
260,1.55965533557e+18,-8.497281075,3.205934048,6.76622057
261,1.55965533562e+18,-9.004867554,2.988054991,5.964138508
262,1.55965533567e+18,-7.877163887,2.791724443,5.633728504
263,1.55965533573e+18,-8.442213058,2.188367128,4.781366825
264,1.55965533578e+18,-7.553936958,2.336812258,4.644893169
265,1.55965533583e+18,-5.700768471,3.170019865,5.504437923
266,1.55965533588e+18,-4.515602112,3.735068798,5.45176363
267,1.55965533593e+18,-4.118152618,4.328848839,5.226701736
268,1.55965533599e+18,-3.356773376,4.364762783,5.463735104
269,1.55965533604e+18,-3.510006905,3.723097324,6.040755272
270,1.55965533609e+18,-5.595420361,2.135693073,6.835654736
271,1.55965533614e+18,-4.687990189,0.2202732861,7.637736797
272,1.55965533619e+18,-6.984099388,-1.367130876,6.395108223
273,1.55965533625e+18,-6.304125786,-0.8739103079,6.074275017
274,1.5596553363e+18,-7.515628815,-2.516382933,5.02797699
275,1.55965533635e+18,-7.01522541,-2.913832426,7.57309103
276,1.5596553364e+18,-8.300951004,-4.70953846,7.709564686
277,1.55965533645e+18,-6.72551775,-4.036747456,0.6799740195
278,1.55965533651e+18,-9.150918007,-0.01436564885,7.992089272
279,1.55965533656e+18,-5.911464691,2.760598898,8.743891716
280,1.55965533661e+18,-6.375953674,1.831620216,8.870788574
281,1.55965533666e+18,-6.112583637,1.944151163,10.63297462
282,1.55965533671e+18,-6.186806202,1.491633177,9.170072556
283,1.55965533677e+18,-4.458139896,2.466103077,9.088666916
284,1.55965533682e+18,-4.187586784,2.686376333,8.38235569
285,1.55965533687e+18,-2.638490915,3.450150013,7.733507633
286,1.55965533692e+18,0.3375927508,4.28575182,7.82688427
287,1.55965533697e+18,1.431776285,6.023995399,6.138920784
288,1.55965533703e+18,3.237059593,4.778972626,4.194769382
289,1.55965533708e+18,6.442993641,3.220299721,4.865166187
290,1.55965533713e+18,3.761405706,3.905062199,3.96731329
291,1.55965533718e+18,4.908263206,3.88111949,3.94576478
292,1.55965533723e+18,4.992063046,3.64887476,5.114171028
293,1.55965533729e+18,5.624151707,4.266597748,4.850800991
294,1.55965533734e+18,7.225921154,4.063084126,4.817280769
295,1.55965533739e+18,7.357606411,4.491659641,5.585843086
296,1.55965533744e+18,8.257853508,4.326454639,8.138139725
297,1.55965533749e+18,12.34727478,5.365570068,9.991309166
298,1.55965533755e+18,16.73119164,6.792557716,11.99531651
299,1.5596553376e+18,30.71136284,12.23474407,13.1110487
300,1.55965533765e+18,36.28523636,22.60674286,-2.50201726
301,1.5596553377e+18,23.53093338,5.207547665,0.02154847234
302,1.55965533775e+18,0.627300024,-3.43578434,4.462928295
303,1.55965533781e+18,-2.624125242,-57.32133484,20.96187592
304,1.55965533786e+18,-14.09270191,-14.01368999,-11.99531651
305,1.55965533791e+18,8.916279793,1.412622094,-6.031178474
306,1.55965533796e+18,14.02566147,13.73116589,0.5985686779
307,1.55965533801e+18,4.166038036,3.917033672,3.759011507
308,1.55965533807e+18,4.546727657,4.494053841,1.448536277
309,1.55965533812e+18,4.304905891,1.249811411,5.628940105
310,1.55965533817e+18,7.271412373,0.9529213905,5.844424725
311,1.55965533822e+18,6.988888264,-2.006402254,6.895511627
312,1.55965533827e+18,5.707951069,-0.6967339516,6.933819771
313,1.55965533833e+18,4.024775982,-0.5842030644,6.122160912
314,1.55965533838e+18,1.256994247,1.419804931,7.695199013
315,1.55965533843e+18,-0.4429408312,3.220299721,7.269018173
316,1.55965533848e+18,-3.512401104,3.660846233,15.57715225
317,1.55965533853e+18,-4.063084126,6.057515144,13.41512203
318,1.55965533859e+18,-6.581861496,3.751828671,11.22675419
319,1.55965533864e+18,-10.32411289,3.478881359,9.500482559
320,1.55965533869e+18,-12.72557068,2.044710636,6.55073595
321,1.55965533874e+18,-13.03443241,4.000833035,7.259441376
322,1.55965533879e+18,-10.79817963,4.338426113,5.475706577
323,1.55965533885e+18,-9.167677879,2.683982134,5.549929142
324,1.5596553389e+18,-8.439818382,0.8786988258,3.689577579
325,1.55965533895e+18,-8.415876389,-0.007182824425,2.968900681
326,1.559655339e+18,-8.530800819,0.06225114316,2.188367128
327,1.55965533905e+18,-7.477320194,0.4357580245,2.039922237
328,1.55965533911e+18,-7.453377247,0.9601042271,2.202732801
329,1.55965533916e+18,-8.88515377,0.8499675393,1.970488191
330,1.55965533921e+18,-10.67128277,1.053480864,0.8523618579
331,1.55965533926e+18,-10.38397026,0.8427847624,1.594586968
332,1.55965533931e+18,-9.751881599,0.7422251701,1.618529797
333,1.55965533937e+18,-9.744698524,0.5099805593,1.388679385
334,1.55965533942e+18,-10.51565456,-0.1795706153,1.697540879
335,1.55965533947e+18,-11.33689117,-1.527547359,1.486844659
336,1.55965533952e+18,-8.995290756,-0.7134938836,2.152452946
337,1.55965533957e+18,-7.063110828,0.04549122229,2.739050388
338,1.55965533963e+18,-7.577879906,0.632088542,2.509200096
