,Time (s),Acceleration x (m/s^2),Acceleration y (m/s^2),Acceleration z (m/s^2)
0,1.55965502105e+18,-0.5698373914,8.851634026,18.26113319
1,1.5596550211e+18,2.207521439,10.36242104,16.82935715
2,1.55965502115e+18,15.33054161,17.71045113,19.72403526
3,1.5596550212e+18,17.33694458,20.92596245,10.64733982
4,1.55965502125e+18,0.7039167881,-4.041535854,14.60986519
5,1.5596550213e+18,-30.26842308,-28.10160255,-8.293767929
6,1.55965502135e+18,-1.501210332,-14.04721069,9.031204224
7,1.55965502141e+18,0.0574625954,-9.483722687,1.881899953
8,1.55965502146e+18,4.336031914,0.3711125851,1.158828974
9,1.55965502151e+18,4.225894928,3.181991339,1.855562925
10,1.55965502156e+18,2.190761566,3.143682718,3.600989342
11,1.55965502161e+18,4.395888329,2.083019018,5.351204395
12,1.55965502166e+18,5.672037125,1.340793848,7.206767082
13,1.55965502171e+18,3.253819466,0.9553156495,8.121379852
14,1.55965502176e+18,0.4884320498,-0.945738554,8.801354408
15,1.55965502181e+18,-7.620976925,-6.885934353,10.04637718
16,1.55965502186e+18,-12.92190075,-6.524398804,8.147717476
17,1.55965502191e+18,-16.34571457,-5.897099018,4.711932659
18,1.55965502196e+18,-14.39438057,-3.093403101,3.759011507
19,1.55965502202e+18,-13.19005966,-1.50599885,4.666441441
20,1.55965502207e+18,-12.81415844,0.1891477108,3.720703125
21,1.55965502212e+18,-14.03045082,-0.3256213665,4.158855438
22,1.55965502217e+18,-14.34888935,-0.9960182905,3.268185139
23,1.55965502222e+18,-15.3832159,-0.7278595567,3.531555414
24,1.55965502227e+18,-15.51250648,-0.4285751879,5.454157829
25,1.55965502232e+18,-13.43427563,0.4501236677,6.000052452
26,1.55965502237e+18,-16.07276726,0.1005595401,1.623318315
27,1.55965502242e+18,-10.00327969,1.61134696,1.256994247
28,1.55965502248e+18,-4.790944099,3.409447432,0.2394274771
29,1.55965502253e+18,-2.150058746,0.8140534163,0.962498486
30,1.55965502258e+18,1.149251938,-4.395888329,3.239453793
31,1.55965502263e+18,0.0287312977,-18.34493446,-0.4022381604
32,1.55965502268e+18,-7.46774292,-10.08947372,-2.621730804
33,1.55965502273e+18,8.511647224,-14.03523922,13.67609787
34,1.55965502278e+18,-1.778946161,22.13985825,0.8260248303
35,1.55965502284e+18,-5.181210518,9.577098846,17.74875832
36,1.55965502289e+18,-4.170826912,4.125335693,19.42235756
37,1.55965502294e+18,-0.1795706153,6.416656494,21.83099747
38,1.55965502299e+18,3.040729046,8.631361008,23.48065376
39,1.55965502304e+18,11.54758739,13.61384678,20.58597565
40,1.55965502309e+18,16.73358727,12.06235695,12.90035248
41,1.55965502314e+18,-0.4932205975,-5.918647289,19.05124474
42,1.55965502319e+18,-19.72882462,-20.38006783,-5.944984436
43,1.55965502324e+18,-2.449343204,-8.820508003,2.949746609
44,1.5596550233e+18,-1.381496549,-7.374366283,3.624932051
45,1.55965502335e+18,1.467690468,-1.266571403,1.568249941
46,1.5596550234e+18,0.8571503758,1.766974807,1.647261024
47,1.55965502345e+18,-0.6775797606,0.0837996155,5.777385235
48,1.5596550235e+18,0.2921015322,0.5746259689,6.08864069
49,1.55965502355e+18,-0.184359163,-0.4094209969,6.395108223
50,1.5596550236e+18,-3.375927448,-2.466103077,7.257047176
51,1.55965502365e+18,-5.008822918,-3.368744612,5.801327705
52,1.5596550237e+18,-12.15573311,-9.24429512,8.300951004
53,1.55965502375e+18,-13.14217472,-8.650514603,7.479714394
54,1.5596550238e+18,-15.91713905,-9.862017632,5.59781456
55,1.55965502386e+18,-14.35128307,-6.265817165,4.374340057
56,1.55965502391e+18,-15.52926636,-4.252232075,3.603383541
57,1.55965502396e+18,-15.70404816,-4.235472202,5.645699978
58,1.55965502401e+18,-13.98017025,-2.104567528,5.360781193
59,1.55965502406e+18,-12.90514088,-1.33600533,4.532361984
60,1.55965502411e+18,-13.7862339,-1.855562925,3.11734581
61,1.55965502416e+18,-29.49986076,-4.096604347,6.363982677
62,1.55965502421e+18,-8.664880753,1.386285067,18.1055069
63,1.55965502427e+18,-8.767834663,4.180403709,15.81179047
64,1.55965502432e+18,-6.378347874,7.053533554,17.71045113
65,1.55965502437e+18,-4.125335693,6.390319347,18.77829742
66,1.55965502442e+18,0.5004034638,7.369577885,20.59076309
67,1.55965502447e+18,13.29061985,13.80778313,16.75753021
68,1.55965502452e+18,22.05605888,9.816526413,16.59471893
69,1.55965502457e+18,-14.3393116,-12.18446445,24.56047058
70,1.55965502462e+18,-10.84606457,-11.59068394,-2.123721838
71,1.55965502467e+18,0.002394274808,-15.36884975,3.79492569
72,1.55965502472e+18,0.7518022656,-5.70555687,3.026363373
73,1.55965502477e+18,1.968093872,3.478881359,-1.44135344
74,1.55965502483e+18,1.347976685,2.329629421,1.960911036
75,1.55965502488e+18,-0.6608198285,0.7925049663,4.869955063
76,1.55965502493e+18,0.1077423692,-0.1053480953,5.655277252
77,1.55965502498e+18,0.6225114465,-0.277735889,8.095043182
78,1.55965502503e+18,0.1364736706,1.252205729,10.00806904
79,1.55965502508e+18,0.1532335877,0.5698373914,8.518829346
80,1.55965502513e+18,-5.571477413,-4.458139896,11.3680172
81,1.55965502518e+18,-11.82292938,-6.122160912,9.53639698
82,1.55965502523e+18,-15.81657982,-5.672037125,4.680807114
83,1.55965502528e+18,-14.03763294,-2.597788095,3.550709486
84,1.55965502534e+18,-14.3776207,-0.6943396926,6.562707424
85,1.55965502539e+18,-12.24432182,-3.129317284,-0.8308133483
86,1.55965502544e+18,-13.74553204,-2.176395893,1.666415215
87,1.55965502549e+18,-7.563514233,-3.052700281,2.940169573
88,1.55965502554e+18,-6.466936111,-2.832427025,4.608979225
89,1.55965502559e+18,-8.576292038,-3.404658794,4.0726614
90,1.55965502564e+18,-10.45819283,-3.198751211,2.430188894
91,1.5596550257e+18,-10.63536835,-2.35357213,2.537931204
92,1.55965502575e+18,-13.96580505,0.3375927508,-0.6799740195
93,1.5596550258e+18,-13.38399601,0.2442160249,-0.612934351
94,1.55965502585e+18,-8.712765694,-0.7637736797,-0.5267404318
95,1.5596550259e+18,-2.937775135,-3.545921087,-0.1460507661
96,1.55965502595e+18,-2.741444588,-9.684841156,1.053480864
97,1.559655026e+18,-8.243488312,-8.130957603,-0.6632141471
98,1.55965502605e+18,-10.36481571,-6.007235527,0.6033572555
99,1.55965502611e+18,-11.24830341,-3.062277555,1.829225898
100,1.55965502616e+18,-15.02407455,0.2059076279,3.114951611
101,1.55965502621e+18,-20.95948219,3.569863796,3.555498123
102,1.55965502626e+18,-11.67448425,1.61134696,3.708731651
103,1.55965502631e+18,-12.53881741,-2.67440486,1.237840056
104,1.55965502636e+18,-9.428654671,-0.4189980924,-0.9122186899
105,1.55965502641e+18,-7.606611252,-2.087807655,-3.517189741
106,1.55965502646e+18,-8.439818382,0.299284339,-2.48046875
107,1.55965502652e+18,-11.08788681,-4.292934895,2.05668211
108,1.55965502657e+18,-16.58753586,-3.730280161,4.187586784
109,1.55965502662e+18,9.967366219,5.712739468,0.8475732803
110,1.55965502667e+18,9.167677879,4.649681568,2.418217659
111,1.55965502672e+18,5.62175703,6.16765213,5.044736862
112,1.55965502677e+18,8.466156006,8.616994858,3.301704884
113,1.55965502682e+18,5.106987953,5.454157829,6.924242973
114,1.55965502687e+18,5.990475655,5.121353626,10.64733982
115,1.55965502693e+18,6.907482624,1.381496549,9.967366219
116,1.55965502698e+18,5.997658253,1.795706153,6.313702583
117,1.55965502703e+18,5.267404556,3.205934048,4.857983589
118,1.55965502708e+18,5.487678051,3.390293121,7.113390446
119,1.55965502713e+18,4.436591148,3.347196102,6.162863255
120,1.55965502718e+18,4.21631813,2.255406857,8.451789856
121,1.55965502724e+18,5.961744308,2.700742006,9.811738014
122,1.55965502729e+18,9.440625191,3.589017868,10.75268841
123,1.55965502734e+18,22.21408081,9.574705124,8.557138443
124,1.55965502739e+18,35.64117432,17.60031319,0.5147690773
125,1.55965502744e+18,16.75274086,1.352765322,3.586623669
126,1.55965502749e+18,-8.863605499,-8.595446587,21.16778374
127,1.55965502754e+18,-14.89957237,-25.68338585,14.97379494
128,1.55965502759e+18,-2.276955366,-6.873962879,3.775771379
129,1.55965502765e+18,0.5171633363,-3.363956213,2.657644987
130,1.5596550277e+18,3.450150013,1.403045058,2.976083517
131,1.55965502775e+18,4.302511692,2.305686712,4.343214512
132,1.5596550278e+18,4.03195858,1.596981287,5.525986195
133,1.55965502785e+18,2.949746609,1.458113313,6.660872459
134,1.5596550279e+18,1.31445682,0.5339232683,9.474145889
135,1.55965502795e+18,-2.176395893,-3.488458395,12.01447105
136,1.55965502801e+18,-7.462954521,-7.953781128,10.00567436
137,1.55965502806e+18,-9.890748978,-6.399896622,8.059128761
138,1.55965502811e+18,-13.35287094,-5.734288216,4.237866402
139,1.55965502816e+18,-13.56596088,-3.565075159,3.419024467
140,1.55965502821e+18,-12.50050831,-1.963305354,4.589824677
141,1.55965502826e+18,-11.78940868,-1.376708031,4.716721535
142,1.55965502831e+18,-11.36322784,-1.225868702,3.948159218
143,1.55965502836e+18,-11.79659176,-2.956929445,4.051113129
144,1.55965502841e+18,-11.62420464,-5.011217117,5.147690773
145,1.55965502847e+18,-9.287391663,-4.482082367,5.245856285
146,1.55965502852e+18,-7.462954521,-3.306493521,4.398283005
147,1.55965502857e+18,-7.352818012,-3.11734581,4.506025314
148,1.55965502862e+18,-8.269824982,-2.880312681,6.742278099
149,1.55965502867e+18,-10.73592854,-2.090201855,7.714353561
150,1.55965502872e+18,-11.82771778,0.3088614643,9.488511086
151,1.55965502877e+18,-12.557971,-0.6225114465,11.91391182
152,1.55965502882e+18,-16.04643059,-2.923409462,11.47097015
153,1.55965502887e+18,-9.816526413,-1.154040456,8.169265747
154,1.55965502892e+18,-4.630527496,0.7709565163,-0.945738554
155,1.55965502897e+18,-3.430995703,0.1436564922,-2.145270348
156,1.55965502903e+18,0.3639297783,-2.303292274,0.5961744189
157,1.55965502908e+18,0.5482889414,-4.343214512,4.812492371
158,1.55965502913e+18,-6.237085819,-7.379155159,-0.634482801
159,1.55965502918e+18,-10.63297462,-14.91633224,-5.868367672
160,1.55965502923e+18,-56.40193176,-75.59683228,74.21533966
161,1.55965502928e+18,-0.6249057055,42.79526901,-35.59807968
162,1.55965502933e+18,-15.09829712,1.893871427,-13.02964306
163,1.55965502938e+18,-15.22040462,9.845257759,-3.275367975
164,1.55965502943e+18,-17.87565613,12.86204433,-6.031178474
165,1.55965502949e+18,-13.47737312,10.937047,-2.930592299
166,1.55965502954e+18,-7.04156208,8.909096718,1.525153041
167,1.55965502959e+18,-9.569916725,7.829278469,3.761405706
168,1.55965502964e+18,-3.344801903,7.704776287,2.719896078
169,1.55965502969e+18,-0.07182824612,8.482915878,3.75422287
170,1.55965502974e+18,1.568249941,12.85007286,7.410280704
171,1.55965502979e+18,-3.677606106,19.27630615,8.861210823
172,1.55965502984e+18,3.806896925,25.32184982,3.004814863
173,1.55965502989e+18,0.6368771195,24.88609314,2.051893473
174,1.55965502994e+18,-14.71042442,-4.826858044,27.96752357
175,1.55965503e+18,-16.68091202,-18.78069115,-12.0479908
176,1.55965503005e+18,12.81655312,-22.16619682,21.67776489
177,1.5596550301e+18,-1.391073704,-6.895511627,-1.156434774
178,1.55965503015e+18,8.518829346,5.276981831,3.057488918
179,1.5596550302e+18,2.552296877,3.304099321,5.588237286
180,1.55965503025e+18,0.483643502,-0.4166038036,5.444581032
181,1.5596550303e+18,3.143682718,-1.106154919,7.956175327
182,1.55965503035e+18,4.235472202,-1.874717116,10.55875206
183,1.5596550304e+18,3.577046633,-2.250618219,11.77264881
184,1.55965503045e+18,1.453324795,-2.554691315,11.7127924
185,1.5596550305e+18,-2.257801056,-3.026363373,9.684841156
186,1.55965503055e+18,-8.521224022,-5.217124939,9.000079155
187,1.55965503061e+18,-13.59708691,-5.547534943,5.466129303
188,1.55965503066e+18,-14.178895,-2.978477955,5.727105141
189,1.55965503071e+18,-15.83812809,-1.92978549,2.921015263
190,1.55965503076e+18,-11.78222656,-1.247417212,1.496421814
191,1.55965503081e+18,-11.873209,-1.551490068,2.760598898
192,1.55965503086e+18,-9.967366219,-3.055094719,3.20353961
193,1.55965503091e+18,-10.03201103,-4.187586784,4.063084126
194,1.55965503096e+18,-9.771035194,-4.462928295,4.446168423
195,1.55965503101e+18,-9.443019867,-4.395888329,5.116565228
196,1.55965503106e+18,-9.53639698,-2.174001455,7.034379482
197,1.55965503111e+18,-11.89236259,-0.03830839694,6.878751755
198,1.55965503117e+18,-13.38639069,1.920208454,6.737489223
199,1.55965503122e+18,-10.6018486,4.606584549,5.940196037
200,1.55965503127e+18,-9.809344292,11.28421688,-0.7015225291
201,1.55965503132e+18,0.3615354896,10.57551193,-0.2609759569
202,1.55965503137e+18,-10.64733982,-2.971295118,14.60028744
203,1.55965503142e+18,-14.07594204,2.794118643,-2.844398499
204,1.55965503148e+18,-7.668862343,-0.8068706393,0.4932205975
205,1.55965503153e+18,0.1053480953,1.628106833,0.8427847624
206,1.55965503158e+18,-3.804502726,-6.577073097,-6.639324188
207,1.55965503163e+18,-2.50201726,-12.49811459,-8.403904915
208,1.55965503168e+18,-6.586649895,-7.213950157,-19.04885101
209,1.55965503173e+18,0.2825244367,9.754275322,16.40078163
210,1.55965503178e+18,-2.842004299,-4.913052082,17.29863548
211,1.55965503184e+18,-18.87885666,-1.005595446,9.974549294
212,1.55965503189e+18,-13.75989723,-1.999219418,17.80382729
213,1.55965503194e+18,-17.20525932,1.003201127,14.00650787
214,1.55965503199e+18,-12.06475067,-1.324033976,13.18766594
215,1.55965503204e+18,-12.45262337,0.9146129489,8.839662552
216,1.55965503209e+18,-8.731920242,1.170800328,6.114977837
217,1.55965503214e+18,-7.443800449,2.339206457,5.731894016
218,1.5596550322e+18,-7.50844574,3.706337452,5.944984436
219,1.55965503225e+18,-6.023995399,3.275367975,7.836461544
220,1.5596550323e+18,0.8260248303,4.0726614,10.15651417
221,1.55965503235e+18,14.76309872,10.66649437,12.46698856
222,1.5596550324e+18,26.71531868,15.59630585,8.016032219
223,1.55965503245e+18,5.70316267,-3.03115201,10.78860188
224,1.5596550325e+18,-21.16299438,-13.77905178,-0.09577099234
225,1.55965503256e+18,-7.829278469,-13.36244774,11.83729458
226,1.55965503261e+18,-1.110943556,-3.361561775,4.769395351
227,1.55965503266e+18,4.264203548,3.134105682,2.913832426
228,1.55965503271e+18,2.025556564,4.436591148,2.523565531
229,1.55965503276e+18,2.846792698,5.391906738,3.861965179
230,1.55965503281e+18,2.77735877,3.430995703,5.940196037
231,1.55965503286e+18,2.533142805,2.695953369,8.940221786
232,1.55965503291e+18,1.54909575,1.352765322,8.322499275
233,1.55965503296e+18,-1.762186289,-3.0096035,9.33767128
234,1.55965503301e+18,-5.308107376,-3.917033672,6.40468502
235,1.55965503307e+18,-10.56593513,-6.378347874,6.093429565
236,1.55965503312e+18,-11.08309841,-4.738269806,3.052700281
237,1.55965503317e+18,-12.95302677,-4.85319519,3.22269392
238,1.55965503322e+18,-11.60983849,-3.517189741,3.232270956
239,1.55965503327e+18,-13.63060665,-3.560286522,4.690384388
240,1.55965503332e+18,-14.78464699,-3.210722446,5.786962032
241,1.55965503337e+18,-17.6984787,-2.509200096,6.352011204
242,1.55965503342e+18,-17.32976151,-1.872322917,5.420638084
243,1.55965503347e+18,-13.70961761,-3.265790939,5.815693378
244,1.55965503352e+18,-10.69283104,-3.294522047,4.800520897
245,1.55965503357e+18,-8.6888237,0.08858817071,4.096604347
246,1.55965503363e+18,-4.460534096,4.00562191,3.11734581
247,1.55965503368e+18,-2.56666255,0.1149251908,6.806923389
248,1.55965503373e+18,-11.55477047,1.431776285,4.506025314
249,1.55965503378e+18,-23.27953339,2.569056988,-6.203566074
250,1.55965503383e+18,-10.92986488,5.779779434,-2.660039425
251,1.55965503388e+18,-1.685569525,5.415849686,2.454131603
252,1.55965503393e+18,-2.367937803,-2.434977531,3.553103924
253,1.55965503399e+18,-4.465322495,-7.343240738,-2.511594296
254,1.55965503404e+18,-15.59391212,-21.0384922,-12.53402901
255,1.55965503409e+18,-13.2858305,-42.52471542,44.64604187
256,1.55965503414e+18,-2.255406857,34.55417252,23.04250145
257,1.55965503419e+18,-22.32661247,-4.649681568,9.838075638
258,1.55965503424e+18,-20.38246155,0.8834874034,12.15812778
259,1.55965503429e+18,-12.64895344,1.235445857,4.379128456
260,1.55965503434e+18,-10.441432,-0.7158881426,11.65293503
261,1.55965503439e+18,-7.371972084,0.1867534369,10.06074238
262,1.55965503445e+18,-5.698374271,0.7446194887,4.881926537
263,1.5596550345e+18,-3.347196102,2.935380936,4.28335762
264,1.55965503455e+18,-4.620950222,2.320052385,7.498868465
265,1.5596550346e+18,-5.506832123,3.502824068,8.672063828
266,1.55965503465e+18,-5.114171028,4.793338299,10.83888245
267,1.5596550347e+18,3.172414064,8.169265747,16.32416534
268,1.55965503475e+18,13.41033363,15.61785412,19.34574127
269,1.5596550348e+18,16.73837471,21.6107235,10.92747021
270,1.55965503485e+18,-7.034379482,-0.2609759569,15.9458704
271,1.55965503491e+18,-10.54438591,-12.7758503,-11.61941528
272,1.55965503496e+18,2.624125242,-28.17103767,15.08871937
273,1.55965503501e+18,-0.8691217303,-7.046350956,0.5195576549
274,1.55965503506e+18,4.702355862,1.419804931,-0.9960182905
275,1.55965503511e+18,2.844398499,3.172414064,3.258608103
276,1.55965503516e+18,-0.1316851079,-0.02394274808,5.607391834
277,1.55965503521e+18,2.978477955,-0.8930644989,6.792557716
278,1.55965503526e+18,0.6153286099,0.05027977005,8.616994858
279,1.55965503531e+18,-1.491633177,0.09337671846,9.64413929
280,1.55965503536e+18,-4.977697372,-7.12296772,8.351230621
281,1.55965503541e+18,-11.69603252,-10.66409969,12.65853119
282,1.55965503546e+18,-16.05121803,-8.78219986,6.012023926
283,1.55965503552e+18,-18.41436768,-6.258634567,2.631308079
284,1.55965503557e+18,-16.00333214,-2.217098475,0.8547561169
285,1.55965503562e+18,-13.25709915,0.9217957854,0.8212362528
286,1.55965503567e+18,-12.34009266,0.004788549617,2.312869549
287,1.55965503572e+18,-11.32731438,-1.953728199,1.405439258
288,1.55965503577e+18,-11.30097675,-3.407052994,1.606558442
289,1.55965503582e+18,-11.85884285,-4.903474808,1.927391171
290,1.55965503587e+18,-11.43505669,-4.92023468,2.111750364
291,1.55965503592e+18,-10.64255142,-5.085439682,1.67599237
292,1.55965503597e+18,-8.535589218,-4.546727657,2.719896078
293,1.55965503602e+18,-6.761432171,-3.131711483,3.105374336
294,1.55965503608e+18,-8.569109917,-1.82204318,3.395081758
295,1.55965503613e+18,-9.476539612,1.731060743,2.916226625
296,1.55965503618e+18,-11.34646797,2.293715239,3.577046633
297,1.55965503623e+18,-10.92268181,2.875524044,4.616161823
298,1.55965503628e+18,-13.96101665,3.34959054,7.893924236
299,1.55965503633e+18,-17.16216278,3.608172178,8.042368889
300,1.55965503638e+18,-9.567522049,5.473312378,7.290566921
301,1.55965503643e+18,-4.525179386,6.988888264,6.342433929
302,1.55965503648e+18,-0.6727912426,8.245882034,2.772570133
303,1.55965503653e+18,-0.8834874034,4.692778587,5.162056446
304,1.55965503659e+18,-3.387898922,3.052700281,-1.63289547
305,1.55965503664e+18,-1.831620216,-0.7015225291,1.692752242
306,1.55965503669e+18,-5.602602959,-4.793338299,-0.2585816681
307,1.55965503674e+18,-5.128536701,-0.3567469418,-7.604216576
308,1.55965503679e+18,4.659258842,-7.604216576,-25.70493507
309,1.55965503684e+18,19.09194756,20.58118629,-2.655250788
310,1.55965503689e+18,2.748627424,7.245075703,-3.179596901
311,1.55965503694e+18,6.294548512,8.123774529,-1.817254543
312,1.559655037e+18,5.62175703,10.62339687,0.6656084061
313,1.55965503705e+18,-0.08619388938,8.300951004,-0.4166038036
314,1.5596550371e+18,0.5075862408,7.915472507,0.1245022863
315,1.55965503715e+18,8.317710876,9.565128326,7.060716629
316,1.5596550372e+18,4.714327335,9.01923275,8.38235569
317,1.55965503725e+18,4.953754425,8.825297356,12.24192715
318,1.5596550373e+18,4.163643837,8.403904915,12.82612991
319,1.55965503735e+18,3.411841631,5.796539307,11.19084072
320,1.5596550374e+18,5.858790398,6.612987041,13.30259037
321,1.55965503745e+18,11.5332222,8.27461338,16.16853714
322,1.55965503751e+18,20.35612488,14.52367115,15.27547359
323,1.55965503756e+18,23.64825249,17.23398972,9.914691925
324,1.55965503761e+18,0.8020820618,-1.75979197,19.95867538
325,1.55965503766e+18,-5.719922543,-9.529213905,-21.5915699
326,1.55965503771e+18,-4.338426113,-29.50225449,13.90355396
327,1.55965503776e+18,-1.297696948,-10.11341667,6.318490982
328,1.55965503781e+18,1.237840056,-0.7446194887,-1.889082789
329,1.55965503786e+18,0.7877163887,3.184385538,3.071854591
330,1.55965503791e+18,-2.456526041,-1.024749637,4.35039711
331,1.55965503797e+18,-0.7853221297,-1.946545362,7.115784645
332,1.55965503802e+18,-1.048692346,-2.935380936,8.37038517
333,1.55965503807e+18,-1.429382086,-5.004034519,9.581888199
334,1.55965503812e+18,-5.260221958,-7.225921154,9.850046158
335,1.55965503817e+18,-8.43742466,-9.553156853,8.042368889
336,1.55965503822e+18,-14.54043102,-9.356825829,4.395888329
