,Time (s),Acceleration x (m/s^2),Acceleration y (m/s^2),Acceleration z (m/s^2)
0,1.55965655405e+18,-5.997658253,0.3567469418,5.554717541
1,1.5596565541e+18,-4.194769382,0.2394274771,5.87555027
2,1.55965655415e+18,2.770175934,2.245829821,4.419831276
3,1.5596565542e+18,5.684008598,2.190761566,4.486870766
4,1.55965655426e+18,8.851634026,2.930592299,5.370358467
5,1.55965655431e+18,9.761458397,2.894678354,3.548315287
6,1.55965655436e+18,8.554743767,1.393467903,1.640078187
7,1.55965655441e+18,1.355159521,-6.859597206,5.497254848
8,1.55965655446e+18,13.22836876,3.629720688,-0.6201171875
9,1.55965655451e+18,9.198803902,2.806090117,-6.023995399
10,1.55965655457e+18,12.99851799,2.892283916,-2.913832426
11,1.55965655462e+18,15.97460175,6.857203007,-5.016005516
12,1.55965655467e+18,23.27953339,3.644086361,2.106961727
13,1.55965655472e+18,19.97543526,4.671230316,2.882706881
14,1.55965655477e+18,13.9993248,2.746233225,1.132491946
15,1.55965655482e+18,7.951386452,1.448536277,-0.7901107073
16,1.55965655487e+18,3.969707727,1.106154919,1.836408734
17,1.55965655492e+18,0.05027977005,1.652049661,0.464489311
18,1.55965655497e+18,-0.1891477108,1.594586968,1.97288239
19,1.55965655502e+18,0.2035133541,1.834014535,2.030344963
20,1.55965655507e+18,-1.97288239,2.418217659,2.305686712
21,1.55965655513e+18,-4.089421272,3.701548815,7.470137596
22,1.55965655518e+18,-12.31375504,6.541158676,14.52367115
23,1.55965655523e+18,-22.35055542,8.868393898,17.47102356
24,1.55965655528e+18,-40.09692001,17.33694458,9.905115128
25,1.55965655533e+18,-33.42886353,5.138113976,-12.25868702
26,1.55965655538e+18,3.608172178,-0.7350423932,17.73199844
27,1.55965655543e+18,34.76965714,-66.21366882,-34.8247261
28,1.55965655548e+18,-1.204320192,-7.563514233,-18.29944229
29,1.55965655553e+18,8.844450951,-2.176395893,-12.73275375
30,1.55965655558e+18,-3.869148016,3.969707727,-0.8739103079
31,1.55965655564e+18,-5.291347504,9.941028595,-7.697593689
32,1.55965655569e+18,-2.513988495,1.283331275,-3.016786337
33,1.55965655574e+18,-4.987274647,-0.59378016,0.3591412306
34,1.55965655579e+18,-4.32406044,-3.672817469,-0.1221080124
35,1.55965655584e+18,-0.5818088055,-1.482056141,3.057488918
36,1.55965655589e+18,2.796513081,-2.956929445,2.523565531
37,1.55965655594e+18,7.374366283,-13.23794556,7.089447498
38,1.55965655599e+18,14.94745731,-30.37376976,11.89715195
39,1.55965655604e+18,20.52851295,-22.97067261,6.093429565
40,1.55965655609e+18,21.63706207,-17.5045433,11.84447765
41,1.55965655614e+18,15.91713905,-12.44065189,10.32171917
42,1.5596565562e+18,9.94821167,-9.004867554,7.776604652
43,1.55965655625e+18,9.17725563,-6.835654736,5.861184597
44,1.5596565563e+18,8.954587936,-7.283383846,5.231490612
45,1.55965655635e+18,7.577879906,-10.55396366,3.608172178
46,1.5596565564e+18,5.779779434,-13.2666769,2.561874151
47,1.55965655645e+18,3.20353961,-14.89478397,0.6416656375
48,1.5596565565e+18,1.391073704,-15.26829052,0.01675992459
49,1.55965655655e+18,0.06225114316,-11.3297081,-0.4261809289
50,1.55965655661e+18,0.6416656375,-9.828497887,0.612934351
51,1.55965655666e+18,-0.2370332032,-9.953000069,0.09816526622
52,1.55965655671e+18,-1.096577883,-8.624177933,1.958516836
53,1.55965655676e+18,-1.041509509,-7.556331158,2.837215662
54,1.55965655681e+18,0.967287004,-7.982511997,4.21871233
55,1.55965655686e+18,1.647261024,-9.330489159,4.084632874
56,1.55965655691e+18,4.168432236,-10.35523891,4.771789551
57,1.55965655696e+18,6.565101624,-9.768641472,5.648094177
58,1.55965655701e+18,10.71437931,-6.375953674,11.34886265
59,1.55965655706e+18,9.890748978,-7.020013809,6.069486618
60,1.55965655712e+18,4.917840481,-5.8516078,1.666415215
61,1.55965655717e+18,5.286558628,-2.645673752,5.169239521
62,1.55965655722e+18,6.012023926,-1.975276709,2.494834423
63,1.55965655727e+18,2.315263748,0.8547561169,-3.170019865
64,1.55965655732e+18,-1.309668303,4.204346657,-2.760598898
65,1.55965655737e+18,-2.633702278,4.106181145,-3.495641232
66,1.55965655743e+18,-1.130097747,7.000859737,4.980091572
67,1.55965655748e+18,15.83094501,5.930618763,15.97460175
68,1.55965655753e+18,12.15573311,8.727131844,16.88442612
69,1.55965655758e+18,13.51807594,12.6010685,11.68884945
70,1.55965655763e+18,7.810124397,7.101418972,1.800494671
71,1.55965655768e+18,3.409447432,6.308914185,3.538738251
72,1.55965655773e+18,0.943344295,2.059076309,3.450150013
73,1.55965655778e+18,-1.517970204,-1.798100352,-0.8332076073
74,1.55965655784e+18,-3.213116884,-4.903474808,-3.581835032
75,1.55965655789e+18,-0.05267404765,-5.739076614,-5.530774593
76,1.55965655794e+18,2.231464148,-11.19084072,-2.949746609
77,1.55965655799e+18,6.62016964,-16.39599419,0.8523618579
78,1.55965655804e+18,13.15414619,-24.71609879,10.45819283
79,1.55965655809e+18,8.047157288,-25.29790688,2.985660791
80,1.55965655814e+18,10.49171257,-18.10790062,7.965752125
81,1.55965655819e+18,13.38639069,-11.90433407,13.30737972
82,1.55965655825e+18,8.578686714,-8.719948769,13.53722954
83,1.5596565583e+18,2.35357213,-10.15172482,9.00726223
84,1.55965655835e+18,-1.470084786,-9.610619545,5.231490612
85,1.5596565584e+18,0.2035133541,-9.490905762,4.118152618
86,1.55965655845e+18,0.3926610649,-10.8293047,4.903474808
87,1.5596565585e+18,1.561067224,-16.54922676,3.756617069
88,1.55965655855e+18,4.762212753,-10.94662476,7.008042336
89,1.5596565586e+18,6.203566074,-9.33767128,7.960963726
90,1.55965655865e+18,5.288952827,-8.269824982,6.30173111
91,1.55965655871e+18,5.377541065,-4.549122334,5.480494976
92,1.55965655876e+18,5.420638084,-4.091815472,3.933793545
93,1.55965655881e+18,6.323279858,-3.313676357,3.715914488
94,1.55965655886e+18,5.681613922,-4.230683804,3.785348415
95,1.55965655891e+18,5.877944469,-4.652075768,3.852388144
96,1.55965655896e+18,7.470137596,-5.681613922,4.443774223
97,1.55965655901e+18,11.17168617,-2.557085514,8.775016785
98,1.55965655906e+18,11.35604572,0.4357580245,9.371191978
99,1.55965655911e+18,9.785401344,0.6919454336,5.521197796
100,1.55965655917e+18,8.499675751,0.002394274808,3.440572977
101,1.55965655922e+18,7.46774292,1.635289669,3.205934048
102,1.55965655927e+18,5.782173634,2.916226625,4.599401951
103,1.55965655932e+18,5.035160065,3.148471355,3.636903524
104,1.55965655937e+18,3.093403101,3.167625666,4.367157459
105,1.55965655942e+18,1.9944309,4.726298332,4.649681568
106,1.55965655947e+18,4.21871233,3.852388144,3.490852594
107,1.55965655952e+18,7.889135361,1.228263021,1.185166001
108,1.55965655957e+18,8.32968235,1.616135478,0.1412622184
109,1.55965655962e+18,16.00333214,-5.454157829,-9.660899162
110,1.55965655968e+18,4.477293968,3.301704884,5.432609558
111,1.55965655973e+18,4.259414673,5.530774593,0.9696813226
112,1.55965655978e+18,4.793338299,4.788549423,2.185972929
113,1.55965655983e+18,2.37512064,6.624958515,-2.384697676
114,1.55965655988e+18,8.238699913,6.232297421,-4.568276405
115,1.55965655993e+18,8.875576973,1.766974807,-1.268965602
116,1.55965655998e+18,14.86844635,-3.847599506,-3.73267436
117,1.55965656003e+18,15.34969616,-7.764633179,-3.569863796
118,1.55965656008e+18,16.4750042,-8.561926842,0.299284339
119,1.55965656013e+18,17.85650063,-6.105400562,0.1412622184
120,1.55965656019e+18,22.03929901,-6.349617004,-1.697540879
121,1.55965656024e+18,19.9993782,-5.734288216,-0.7350423932
122,1.55965656029e+18,15.96502399,-4.795732498,-1.355159521
123,1.55965656034e+18,11.29379463,-4.161249638,-1.249811411
124,1.55965656039e+18,5.674431324,-2.109356165,-0.9936240315
125,1.55965656044e+18,2.411034822,-0.5842030644,-0.8954587579
126,1.55965656049e+18,0.5889915824,-1.055875182,0.5267404318
127,1.55965656054e+18,1.053480864,1.922602654,1.616135478
128,1.55965656059e+18,-1.826831698,5.590631485,7.144515991
129,1.55965656065e+18,-14.49015141,11.89954567,9.974549294
130,1.5596565607e+18,-37.67630768,16.84611702,7.331269264
131,1.55965656075e+18,-35.89017868,11.90194035,-11.86123753
132,1.5596565608e+18,-19.11828423,-4.932206154,1.618529797
133,1.55965656085e+18,24.7663784,-17.75115395,0.3495641351
134,1.5596565609e+18,20.07599449,-15.28744507,5.636122704
135,1.55965656095e+18,2.592999697,-11.27942848,-9.505270958
136,1.559656561e+18,-1.661626697,-0.4573064744,-12.74711895
137,1.55965656105e+18,-13.69285774,14.67451,-8.207573891
138,1.5596565611e+18,-2.470891714,3.11734581,-2.22667551
139,1.55965656115e+18,-7.292961121,3.158048391,0.184359163
140,1.5596565612e+18,-8.775016785,1.776551962,2.195549965
141,1.55965656125e+18,-9.699207306,-0.2609759569,3.914639235
142,1.5596565613e+18,-10.32890129,-0.8739103079,6.229903221
143,1.55965656135e+18,-10.64733982,-2.56666255,5.858790398
144,1.55965656141e+18,-11.06394386,-3.37113905,6.282577038
145,1.55965656146e+18,-9.610619545,-3.256213665,5.595420361
146,1.55965656151e+18,-7.61379385,-2.58821106,5.593026161
147,1.55965656156e+18,-6.931425571,-2.50201726,6.536370277
148,1.55965656161e+18,-5.91625309,-2.363149166,6.419050694
149,1.55965656166e+18,-4.778972626,-0.9888355136,6.51242733
150,1.55965656171e+18,-3.217905283,0.07422251999,7.209161282
151,1.55965656176e+18,-2.157241583,0.5387118459,9.663292885
152,1.55965656181e+18,-1.113337755,1.027143836,11.08070374
153,1.55965656186e+18,0.1053480953,-0.2250618339,12.21559048
154,1.55965656191e+18,2.595393896,-0.612934351,10.84367085
155,1.55965656196e+18,2.042316437,-0.313650012,11.17886925
156,1.55965656201e+18,2.423006058,0.1316851079,10.09905148
157,1.55965656206e+18,3.24424243,0.1197137386,9.438231468
158,1.55965656212e+18,4.379128456,-0.5650488734,9.414288521
159,1.55965656217e+18,5.087833881,-0.9313728809,8.901913643
160,1.55965656222e+18,4.307300568,-0.3759011328,8.3153162
161,1.55965656227e+18,4.0702672,0.09337671846,9.009655952
162,1.55965656232e+18,4.034353256,0.06225114316,8.913885117
163,1.55965656237e+18,4.484476566,0.2346389294,8.03758049
164,1.55965656242e+18,5.710345268,-1.683175206,9.220352173
165,1.55965656247e+18,4.762212753,-2.360754967,8.358413696
166,1.55965656252e+18,5.288952827,-3.938581944,9.349642754
167,1.55965656257e+18,4.872349262,-3.979284763,8.279402733
168,1.55965656262e+18,5.044736862,-4.874743462,8.916279793
169,1.55965656268e+18,4.513207912,-4.204346657,7.264229774
170,1.55965656273e+18,4.867560863,-4.206740856,7.410280704
171,1.55965656278e+18,4.733481407,-4.067873001,6.636929989
172,1.55965656283e+18,4.987274647,-4.297723293,6.907482624
173,1.55965656288e+18,4.946571827,-4.273780346,6.69918108
174,1.55965656293e+18,4.759818554,-4.288146019,6.730306625
175,1.55965656298e+18,5.528380394,-4.369551659,6.866780281
176,1.55965656304e+18,5.332049847,-4.434196949,6.818894863
177,1.55965656309e+18,5.308107376,-4.288146019,6.749460697
178,1.55965656314e+18,5.724710941,-4.098998547,6.72312355
179,1.55965656319e+18,5.684008598,-4.108575344,7.465348721
180,1.55965656324e+18,5.284164429,-4.297723293,7.199584484
181,1.55965656329e+18,5.27937603,-3.30888772,7.527599812
182,1.55965656334e+18,5.672037125,-3.577046633,8.401510239
183,1.55965656339e+18,5.645699978,-3.957736254,7.778998852
184,1.55965656344e+18,5.619362831,-3.737462997,7.889135361
185,1.55965656349e+18,5.528380394,-3.835628271,7.283383846
186,1.55965656355e+18,5.363175392,-3.268185139,6.83086586
187,1.5596565636e+18,5.849213123,-3.213116884,6.821289062
188,1.55965656365e+18,6.294548512,-3.929004908,7.570696831
189,1.5596565637e+18,5.559505939,-4.067873001,6.754249096
190,1.55965656375e+18,5.209941864,-3.787742853,6.677632332
191,1.5596565638e+18,5.588237286,-4.21871233,6.426233768
192,1.55965656385e+18,5.842030525,-3.852388144,6.742278099
193,1.55965656391e+18,5.765413761,-3.526766777,6.72551775
194,1.55965656396e+18,5.458946705,-3.067065954,6.854808807
195,1.55965656401e+18,5.842030525,-2.681587696,7.673650742
196,1.55965656406e+18,6.332856655,-2.554691315,8.753468513
197,1.55965656411e+18,6.433416367,-2.219492674,9.024022102
198,1.55965656416e+18,7.127756119,-1.992036581,9.622590065
199,1.55965656421e+18,6.9122715,-1.31445682,9.088666916
200,1.55965656426e+18,6.708757877,-0.9912297726,8.844450951
201,1.55965656431e+18,7.314509392,-0.102953814,9.871595383
202,1.55965656436e+18,7.513234138,-0.4333637357,9.715967178
203,1.55965656441e+18,6.780586243,-0.01915419847,8.877970695
204,1.55965656447e+18,5.837242126,0.1604164094,9.05993557
205,1.55965656452e+18,3.687183142,0.7374366522,8.832479477
206,1.55965656457e+18,3.581835032,0.8451790214,8.640937805
207,1.55965656462e+18,2.166818619,1.130097747,7.328875065
208,1.55965656467e+18,1.944151163,0.5889915824,7.61379385
209,1.55965656472e+18,1.879505754,1.426987767,5.540351868
210,1.55965656477e+18,1.594586968,2.030344963,6.251451492
211,1.55965656482e+18,3.617749214,0.3543526828,6.117372036
212,1.55965656487e+18,4.309694767,1.261782765,6.004841328
213,1.55965656493e+18,5.494860649,0.7350423932,5.595420361
214,1.55965656498e+18,5.549929142,0.5099805593,5.32007885
215,1.55965656503e+18,9.756669998,-0.4956148863,3.555498123
216,1.55965656508e+18,21.77114105,-6.08624649,6.59143877
217,1.55965656513e+18,6.402290821,0.7446194887,6.354405403
218,1.55965656518e+18,7.419857502,4.192375183,4.901080608
219,1.55965656523e+18,7.704776287,6.170046329,1.764580488
220,1.55965656529e+18,5.341627121,2.547508478,7.889135361
221,1.55965656534e+18,10.12538815,6.988888264,6.201171875
222,1.55965656539e+18,4.036747456,4.941783428,6.134131908
223,1.55965656544e+18,2.324840784,2.899466753,9.050358772
224,1.55965656549e+18,1.338399649,3.033546209,6.387925148
225,1.55965656554e+18,3.050306082,3.155654192,9.596253395
226,1.55965656559e+18,-0.2250618339,4.333637238,11.90433407
227,1.55965656564e+18,-8.652909279,6.251451492,18.86927986
228,1.55965656569e+18,-22.10873413,6.000052452,22.39125824
229,1.55965656574e+18,-35.95482635,9.902720451,3.605777979
230,1.5596565658e+18,-21.27552605,2.066259146,-5.640911579
231,1.55965656585e+18,9.33767128,-13.35765934,27.06248856
232,1.5596565659e+18,5.226701736,-42.55583954,2.229069948
233,1.55965656595e+18,16.5037365,7.297749519,-7.869981289
234,1.559656566e+18,-5.944984436,-8.39672184,-9.416683197
235,1.55965656605e+18,-6.780586243,16.94907188,-2.276955366
236,1.5596565661e+18,-10.49171257,4.726298332,-6.363982677
237,1.55965656616e+18,-0.7637736797,-1.692752242,2.99044919
238,1.55965656621e+18,-3.56268096,-1.206714511,2.58821106
239,1.55965656626e+18,-2.803695917,-1.221080184,1.192348838
240,1.55965656631e+18,-1.18756032,0.1221080124,3.849993944
241,1.55965656636e+18,0.5889915824,4.21871233,7.132544518
242,1.55965656641e+18,3.900273561,2.343995094,11.81335163
243,1.55965656646e+18,10.95141315,5.118959427,14.42071724
244,1.55965656651e+18,18.4263382,3.883513689,15.45504379
245,1.55965656656e+18,17.46384048,7.44140625,12.28262997
246,1.55965656661e+18,13.96580505,9.402317047,10.07032013
247,1.55965656667e+18,8.35601902,9.227535248,8.030397415
248,1.55965656672e+18,6.847625732,5.013611317,6.861991405
249,1.55965656677e+18,8.126168251,1.110943556,6.768614769
250,1.55965656682e+18,9.318517685,-0.1508393139,6.522004604
251,1.55965656687e+18,8.487704277,-0.04070267081,4.889109135
252,1.55965656692e+18,7.003253937,-0.7182824612,5.367964268
253,1.55965656697e+18,5.700768471,0.5746259689,4.424619675
254,1.55965656702e+18,4.66883564,1.189954638,5.195576191
255,1.55965656707e+18,5.109382629,0.9888355136,5.554717541
256,1.55965656712e+18,6.589044094,0.4788549542,5.55711174
257,1.55965656718e+18,7.12296772,0.5435003638,6.802134514
258,1.55965656723e+18,7.937020779,0.8667274714,7.427040577
259,1.55965656728e+18,7.484503269,1.393467903,7.841249943
260,1.55965656733e+18,7.324086666,1.71908927,7.704776287
261,1.55965656738e+18,7.82688427,2.468497276,7.788576126
262,1.55965656743e+18,8.537983894,2.224281311,7.175641537
263,1.55965656748e+18,8.061523438,1.486844659,7.048745155
264,1.55965656754e+18,7.915472507,0.8092648983,6.639324188
265,1.55965656759e+18,7.877163887,0.3423812985,5.798933506
266,1.55965656764e+18,6.897905827,0.689551115,5.631334305
267,1.55965656769e+18,6.65847826,1.063058019,6.876357079
268,1.55965656774e+18,5.530774593,3.124528646,16.10389328
269,1.55965656779e+18,8.080677032,2.940169573,25.67620277
270,1.55965656784e+18,17.41356087,4.740664005,25.77915764
271,1.5596565679e+18,19.14701653,6.998465061,8.250671387
272,1.55965656795e+18,9.071907043,4.180403709,1.565855742
273,1.559656568e+18,3.785348415,1.920208454,-0.4309694767
274,1.55965656805e+18,-1.403045058,1.189954638,-3.258608103
275,1.5596565681e+18,-0.02154847234,1.40065074,1.608952641
276,1.55965656815e+18,0.8643332124,0.8451790214,0.8547561169
277,1.5596565682e+18,0.4525179267,3.210722446,0.8595446348
278,1.55965656825e+18,-0.3759011328,5.181210518,1.096577883
279,1.5596565683e+18,-2.897072554,6.371165276,0.7781392932
280,1.55965656836e+18,-3.340013266,7.388731956,1.601769805
281,1.55965656841e+18,-4.03195858,7.338452339,1.134886265
282,1.55965656846e+18,-1.757397652,5.782173634,1.431776285
283,1.55965656851e+18,-1.041509509,3.392687321,0.3232271075
284,1.55965656856e+18,0.6919454336,2.856369734,0.8715160489
285,1.55965656861e+18,0.2466102988,1.228263021,1.321639657
286,1.55965656866e+18,-1.728666425,3.529160976,5.815693378
287,1.55965656871e+18,-6.172440529,8.815719604,5.231490612
288,1.55965656876e+18,-5.973715782,5.616968632,9.888355255
289,1.55965656882e+18,-0.5219519138,4.465322495,8.662486076
290,1.55965656887e+18,4.467716694,2.195549965,12.81894779
291,1.55965656892e+18,3.955342054,1.755003452,7.668862343
292,1.55965656897e+18,11.00169277,-0.1556278616,10.78381348
293,1.55965656902e+18,8.775016785,0.1891477108,9.304151535
294,1.55965656907e+18,11.20520592,-3.486064196,10.35763264
295,1.55965656912e+18,7.580274105,-3.926610708,8.109408379
296,1.55965656917e+18,8.135746002,-4.89629221,6.893116951
297,1.55965656922e+18,7.352818012,-4.362368584,4.731087208
298,1.55965656928e+18,6.715940952,-6.253845692,4.70714426
299,1.55965656933e+18,6.557918549,-7.527599812,5.640911579
300,1.55965656938e+18,8.590658188,-9.833286285,5.102199554
301,1.55965656943e+18,5.456552505,-7.309720993,3.845205307
302,1.55965656948e+18,4.891503334,-7.223526955,2.928198099
303,1.55965656953e+18,5.253038883,-7.637736797,3.385504484
304,1.55965656958e+18,4.288146019,-7.668862343,3.56268096
305,1.55965656963e+18,5.06628561,-9.2035923,3.581835032
306,1.55965656969e+18,5.193181992,-9.3783741,3.610566378
307,1.55965656974e+18,4.034353256,-8.892336845,3.062277555
308,1.55965656979e+18,3.926610708,-8.78219986,2.944957972
309,1.55965656984e+18,3.440572977,-8.502069473,2.389486313
310,1.55965656989e+18,4.008016109,-9.196409225,2.67201066
311,1.55965656994e+18,3.385504484,-8.815719604,2.18357873
312,1.55965656999e+18,2.600182533,-8.973741531,1.843591571
313,1.55965657004e+18,2.736656189,-9.196409225,1.489238977
314,1.55965657009e+18,3.442967176,-9.296969414,1.874717116
315,1.55965657015e+18,3.208328247,-9.134158134,1.92978549
316,1.5596565702e+18,3.493247032,-9.282603264,2.329629421
317,1.55965657025e+18,3.253819466,-9.320911407,2.044710636
318,1.5596565703e+18,3.232270956,-9.10063839,2.178790092
319,1.55965657035e+18,3.265790939,-9.105426788,2.274561167
320,1.5596565704e+18,3.316070557,-8.935433388,2.049499273
321,1.55965657045e+18,3.296916485,-9.045570374,2.061470509
322,1.5596565705e+18,3.672817469,-9.095849991,2.877918243
323,1.55965657055e+18,3.885908127,-8.978530884,3.134105682
324,1.55965657061e+18,4.589824677,-8.719948769,4.788549423
325,1.55965657066e+18,3.938581944,-8.660092354,5.229096413
326,1.55965657071e+18,3.991255999,-9.035993576,5.715134144
327,1.55965657076e+18,4.13730669,-9.086273193,5.643305779
328,1.55965657081e+18,4.819674969,-8.954587936,6.80452919
329,1.55965657086e+18,4.733481407,-9.119792938,6.265817165
330,1.55965657091e+18,4.529967785,-7.848433018,5.933012962
331,1.55965657096e+18,4.474899769,-7.166064739,5.87555027
332,1.55965657101e+18,4.721509933,-6.205960274,5.581054688
333,1.55965657107e+18,4.678412914,-5.413455486,6.071880817
334,1.55965657112e+18,4.355185986,-4.075055599,5.95695591
335,1.55965657117e+18,4.489265442,-3.780560017,5.944984436
336,1.55965657122e+18,3.742251635,-2.997632027,5.358386993
337,1.55965657127e+18,3.735068798,-2.288926601,5.739076614
338,1.55965657132e+18,3.790137053,-2.061470509,7.352818012
339,1.55965657137e+18,3.871542454,-1.944151163,8.595446587
