,Time (s),Acceleration x (m/s^2),Acceleration y (m/s^2),Acceleration z (m/s^2)
0,1.55965562305e+18,-6.026389599,0.3711125851,6.720729351
1,1.5596556231e+18,-6.632141113,0.3016786277,5.681613922
2,1.55965562316e+18,-6.431022167,0.483643502,5.485283375
3,1.55965562321e+18,-7.324086666,0.948132813,5.729499817
4,1.55965562326e+18,-8.70079422,0.4261809289,6.165257454
5,1.55965562331e+18,-8.092648506,0.6991282701,6.567495823
6,1.55965562336e+18,-9.287391663,0.2106961906,6.095823765
7,1.55965562342e+18,-7.67843914,0.9026415944,6.560312748
8,1.55965562347e+18,-5.719922543,1.395862222,6.208354473
9,1.55965562352e+18,-2.521171331,1.78134048,2.619336605
10,1.55965562357e+18,3.129317284,2.741444588,1.843591571
11,1.55965562362e+18,4.676018715,3.232270956,7.065505028
12,1.55965562368e+18,3.689577579,2.928198099,9.507665634
13,1.55965562373e+18,0.9720755816,1.345582485,6.663266659
14,1.55965562378e+18,5.499649048,0.1556278616,7.755055904
15,1.55965562383e+18,8.099831581,-0.1221080124,13.25231075
16,1.55965562388e+18,14.24354076,2.961717844,13.02724934
17,1.55965562394e+18,13.78384018,2.715107679,12.27065849
18,1.55965562399e+18,9.847652435,3.979284763,8.095043182
19,1.55965562404e+18,6.162863255,3.208328247,4.563488007
20,1.55965562409e+18,3.634509087,3.205934048,2.253012657
21,1.55965562414e+18,0.2681587934,2.846792698,-2.245829821
22,1.5596556242e+18,-4.948966026,3.201145411,-5.755836487
23,1.55965562425e+18,-3.419024467,-0.4716721475,-2.279349566
24,1.5596556243e+18,1.027143836,-0.5435003638,2.181184292
25,1.55965562435e+18,5.684008598,-4.656864643,11.03281784
26,1.5596556244e+18,8.868393898,-11.4949131,13.92510223
27,1.55965562446e+18,7.977723598,-25.44156456,7.558725357
28,1.55965562451e+18,15.9506588,-14.70802975,14.14776993
29,1.55965562456e+18,8.193208694,-8.59305191,10.47016335
30,1.55965562461e+18,5.985687256,-5.102199554,8.047157288
31,1.55965562466e+18,7.769421577,-3.325647593,6.76382637
32,1.55965562472e+18,7.348029613,-3.155654192,7.635342598
33,1.55965562477e+18,9.213169098,0.9529213905,9.3783741
34,1.55965562482e+18,9.897932053,-0.4980091453,3.438178539
35,1.55965562487e+18,4.925023079,-1.750214934,-1.075029373
36,1.55965562492e+18,-0.8523618579,-1.65444386,-2.909043789
37,1.55965562498e+18,-4.338426113,1.041509509,9.701601982
38,1.55965562503e+18,-3.974496126,4.963331699,-5.813299179
39,1.55965562508e+18,2.054287672,-1.86514008,6.732700825
40,1.55965562513e+18,18.60830307,-30.6203804,10.40312386
41,1.55965562518e+18,12.48853779,-12.32572651,8.889942169
42,1.55965562524e+18,5.691191196,-1.422199249,7.50844574
43,1.55965562529e+18,6.924242973,8.935433388,10.29059315
44,1.55965562534e+18,9.900326729,7.130150318,8.74149704
45,1.55965562539e+18,12.22516727,1.268965602,10.14454269
46,1.55965562544e+18,14.35367775,-16.59471893,9.016839027
47,1.5596556255e+18,10.88676739,-6.919454098,7.582668304
48,1.55965562555e+18,6.694392204,2.047105074,4.810098171
49,1.5596556256e+18,8.947404861,-2.827638626,6.277788639
50,1.55965562565e+18,-15.20843315,8.691217422,-21.56044388
51,1.5596556257e+18,-4.008016109,1.903448462,-7.374366283
52,1.55965562576e+18,0.2585816681,-13.18766594,17.19568253
53,1.55965562581e+18,16.19487572,-35.96200943,14.51888275
54,1.55965562586e+18,11.00648117,-17.97142601,11.61462688
55,1.55965562591e+18,6.390319347,6.510033131,2.46131444
56,1.55965562596e+18,8.861210823,3.641691923,1.939362645
57,1.55965562601e+18,7.929838181,-7.889135361,5.581054688
58,1.55965562607e+18,6.823683262,-7.233104229,2.030344963
59,1.55965562612e+18,1.144463301,6.431022167,11.74870682
60,1.55965562617e+18,-12.96499825,-4.884320736,-0.8834874034
61,1.55965562622e+18,11.93067169,-16.55880547,16.74316406
62,1.55965562627e+18,4.029564381,-13.02964306,-6.438204765
63,1.55965562633e+18,-1.290514112,-4.843617916,1.175588965
64,1.55965562638e+18,5.746259689,-19.07997513,2.856369734
65,1.55965562643e+18,9.071907043,-17.84931946,8.578686714
66,1.55965562648e+18,8.07828331,-12.37121773,5.813299179
67,1.55965562653e+18,7.237892628,-2.253012657,4.510813713
68,1.55965562659e+18,5.408666611,10.08468533,5.248250484
69,1.55965562664e+18,8.75586319,7.915472507,3.687183142
70,1.55965562669e+18,7.788576126,-2.073441982,-3.962524891
71,1.55965562674e+18,20.97145271,-30.51503181,10.91549873
72,1.55965562679e+18,-19.02490807,18.65379524,-11.40153694
73,1.55965562685e+18,5.114171028,-25.98266983,17.57397652
74,1.5596556269e+18,19.52531052,-22.18535042,4.314483166
75,1.55965562695e+18,0.6943396926,-3.792531252,0.2561874092
76,1.559655627e+18,-2.35357213,-3.354378939,0.3687183261
77,1.55965562705e+18,-0.7757450342,-3.845205307,6.675238132
78,1.55965562711e+18,12.79979324,-17.01371765,6.605803967
79,1.55965562716e+18,15.60827732,-11.06394386,7.300143719
80,1.55965562721e+18,14.43747711,0.1915419847,2.595393896
81,1.55965562726e+18,5.456552505,1.491633177,0.8116591573
82,1.55965562731e+18,4.89629221,-13.58272076,23.69134903
83,1.55965562737e+18,-26.26758957,22.34337234,-19.17574692
84,1.55965562742e+18,-0.6081457734,-10.2618618,11.69363785
85,1.55965562747e+18,22.51097107,-43.63087082,14.4949398
86,1.55965562752e+18,7.788576126,-32.4065094,6.615381241
87,1.55965562757e+18,3.423812866,-15.02407455,3.488458395
88,1.55965562763e+18,4.865166187,-2.978477955,3.201145411
89,1.55965562768e+18,0.6656084061,2.521171331,2.106961727
90,1.55965562773e+18,5.861184597,-4.348002911,4.063084126
91,1.55965562778e+18,12.8931694,-10.50128937,7.024802208
92,1.55965562783e+18,16.44148445,-4.795732498,6.016812801
93,1.55965562789e+18,9.86680603,-2.794118643,6.644112587
94,1.55965562794e+18,4.094210148,4.489265442,3.000026226
95,1.55965562799e+18,-2.391880512,4.869955063,1.300091267
96,1.55965562804e+18,-1.16601181,3.129317284,2.686376333
97,1.55965562809e+18,-4.065478802,1.340793848,-0.3902668059
98,1.55965562815e+18,12.0479908,-16.67612457,6.778192043
99,1.5596556282e+18,4.671230316,-11.14774323,14.88520622
100,1.55965562825e+18,5.018400192,-35.86144638,-4.85319519
101,1.5596556283e+18,12.53881741,-15.88840771,8.312922478
102,1.55965562835e+18,7.778998852,0.2609759569,7.671256542
103,1.55965562841e+18,9.723150253,-1.063058019,9.062330246
104,1.55965562846e+18,13.3193512,-6.780586243,13.02964306
105,1.55965562851e+18,16.6689415,-19.60910988,6.684815407
106,1.55965562856e+18,7.623371124,-11.46857643,3.77337718
107,1.55965562861e+18,4.192375183,-2.336812258,6.739883423
108,1.55965562867e+18,-6.249057293,-0.1532335877,0.926584363
109,1.55965562872e+18,0.6871568561,1.364736676,-1.541913033
110,1.55965562877e+18,17.25793266,1.869928598,3.361561775
111,1.55965562882e+18,-15.43349552,-4.685595989,-8.15968895
112,1.55965562887e+18,-5.619362831,-0.1604164094,-4.541939259
113,1.55965562893e+18,22.25478363,-23.2029171,12.50769138
114,1.55965562898e+18,14.51169968,-28.12315178,4.122941017
115,1.55965562903e+18,5.542746067,-0.4668835998,4.163643837
116,1.55965562908e+18,4.925023079,-4.2426548,5.06867981
117,1.55965562913e+18,4.132518291,-7.522811413,6.885934353
118,1.55965562919e+18,14.15016365,-21.00018501,3.847599506
119,1.55965562924e+18,15.97460175,-10.2570734,6.284971237
120,1.55965562929e+18,12.12700176,0.1053480953,2.616942406
121,1.55965562934e+18,6.991282463,3.768588543,-0.241821751
122,1.55965562939e+18,3.565075159,0.7565908432,-4.726298332
123,1.55965562945e+18,-3.818868399,0.6081457734,0.9337671995
124,1.5596556295e+18,-20.92596245,9.119792938,-18.14142036
125,1.55965562955e+18,8.1453228,-15.69207668,12.8931694
126,1.5596556296e+18,23.41361427,-41.15279388,3.826051235
127,1.55965562965e+18,14.53803635,-13.90355396,3.96731329
128,1.55965562971e+18,6.270605564,-0.6919454336,4.824463844
129,1.55965562976e+18,1.297696948,-0.1125309169,4.649681568
130,1.55965562981e+18,7.800547123,-4.470110893,5.104593754
131,1.55965562986e+18,11.4949131,-10.61860847,9.263449669
132,1.55965562991e+18,12.82373619,-9.105426788,5.724710941
133,1.55965562997e+18,6.543552876,-1.103760719,4.158855438
134,1.55965563002e+18,-3.332830429,-0.1532335877,3.586623669
135,1.55965563007e+18,-3.797319889,-0.4860377908,-3.325647593
136,1.55965563012e+18,-2.130904675,1.661626697,-2.909043789
137,1.55965563017e+18,7.178035736,-2.475680113,5.782173634
138,1.55965563023e+18,6.835654736,-4.917840481,7.917866707
139,1.55965563028e+18,4.264203548,-14.4949398,8.743891716
140,1.55965563033e+18,9.49569416,-37.75771332,5.071074009
141,1.55965563038e+18,9.273026466,1.63289547,5.437397957
142,1.55965563043e+18,4.671230316,-2.875524044,3.241847992
143,1.55965563049e+18,4.257020473,-5.118959427,3.845205307
144,1.55965563054e+18,10.93944168,-16.69527817,3.871542454
145,1.55965563059e+18,15.62743187,-11.71997547,10.24510193
146,1.55965563064e+18,11.09985828,-6.414262295,6.586649895
147,1.55965563069e+18,7.039167881,-2.698347807,4.000833035
148,1.55965563075e+18,0.4094209969,2.394274712,0.2106961906
149,1.5596556308e+18,-6.948185444,4.017592907,-8.748680115
150,1.55965563085e+18,3.608172178,-4.515602112,7.142121792
151,1.5596556309e+18,-6.624958515,2.432583094,0.3112557232
152,1.55965563095e+18,4.374340057,-10.8101511,4.024775982
153,1.55965563101e+18,16.04403496,-34.33629608,9.627379417
154,1.55965563106e+18,10.84127617,-17.50693703,7.520417213
155,1.55965563111e+18,5.164450645,0.9960182905,6.105400562
156,1.55965563116e+18,3.524372578,-3.033546209,3.64648056
157,1.55965563121e+18,5.748653889,-9.447808266,3.462121487
158,1.55965563127e+18,18.0480442,-11.60265541,7.925049782
159,1.55965563132e+18,12.30178356,-9.859623909,3.974496126
160,1.55965563137e+18,10.90113354,-2.233858347,9.31133461
161,1.55965563142e+18,4.415042877,1.838803053,5.17402792
162,1.55965563147e+18,-3.826051235,5.324867249,0.2561874092
163,1.55965563153e+18,-6.028783798,3.047911882,-9.162889481
164,1.55965563158e+18,8.3153162,-5.401484013,-10.62339687
165,1.55965563163e+18,7.951386452,-2.901860952,-9.493299484
166,1.55965563168e+18,8.030397415,-11.22436047,-4.60419035
167,1.55965563173e+18,24.59399033,-22.94433594,9.220352173
168,1.55965563179e+18,2.909043789,-8.968953133,8.578686714
169,1.55965563184e+18,5.413455486,1.288119793,6.732700825
170,1.55965563189e+18,7.731113434,-10.57311726,4.517996788
171,1.55965563194e+18,12.00728798,-22.14225388,1.731060743
172,1.55965563199e+18,19.2810955,-9.457385063,1.161223292
173,1.55965563205e+18,5.990475655,-5.612180233,6.672843933
174,1.5596556321e+18,-1.541913033,-7.829278469,2.43976593
175,1.55965563215e+18,-2.059076309,2.358360767,-7.307326794
176,1.5596556322e+18,21.20848656,3.593806505,-0.646454215
177,1.55965563225e+18,-13.71201229,13.63300037,-1.163617611
178,1.55965563231e+18,1.711906433,-0.9026415944,5.408666611
179,1.55965563236e+18,21.52931976,-17.26511574,2.080624819
180,1.55965563241e+18,20.65301514,-37.87024307,-5.162056446
181,1.55965563246e+18,13.72158909,-13.69285774,-2.581028223
182,1.55965563251e+18,10.23313046,-3.241847992,5.844424725
183,1.55965563257e+18,6.979310989,-2.810878515,1.757397652
184,1.55965563262e+18,5.923435688,-12.18206978,-1.659232497
185,1.55965563267e+18,13.09907722,-13.494133,0.1077423692
186,1.55965563272e+18,7.371972084,-7.381549358,-0.9768640995
187,1.55965563277e+18,5.035160065,-0.6632141471,3.258608103
188,1.55965563283e+18,1.71669507,5.502043724,6.395108223
189,1.55965563288e+18,-3.921822071,7.944203854,1.419804931
190,1.55965563293e+18,7.616188049,-2.379909277,7.470137596
191,1.55965563298e+18,-3.488458395,18.47183037,-7.881952763
192,1.55965563303e+18,18.7759037,-30.55813026,3.536343813
193,1.55965563309e+18,17.36088753,-30.59404373,5.032765865
194,1.55965563314e+18,9.349642754,-14.00171947,2.58581686
195,1.55965563319e+18,5.166844845,-6.957762718,2.200338602
196,1.55965563324e+18,2.959323645,-2.640885115,4.486870766
197,1.55965563329e+18,6.308914185,-5.494860649,5.102199554
198,1.55965563335e+18,11.47815323,-11.08070374,3.644086361
199,1.5596556334e+18,11.21478367,-4.046324253,6.478907585
200,1.55965563345e+18,6.507638931,3.304099321,2.9258039
201,1.5596556335e+18,-0.03830839694,2.205127001,-0.4980091453
202,1.55965563355e+18,-6.253845692,6.76382637,-4.060689926
203,1.55965563361e+18,-5.308107376,9.323306084,-6.172440529
204,1.55965563366e+18,37.97080231,-7.077476501,17.37285805
205,1.55965563371e+18,21.73043823,-15.54842091,4.687990189
206,1.55965563376e+18,9.663292885,-34.34347916,-1.154040456
207,1.55965563381e+18,8.286584854,-16.09671021,3.567469358
208,1.55965563387e+18,8.377567291,-1.699935079,7.04395628
209,1.55965563392e+18,7.541965485,-2.212309837,6.232297421
210,1.55965563397e+18,11.46857643,-5.305713177,6.205960274
211,1.55965563402e+18,12.08390522,-7.544359684,5.408666611
212,1.55965563407e+18,9.656110764,-10.47734642,3.361561775
213,1.55965563413e+18,5.454157829,-3.387898922,-0.3064671755
214,1.55965563418e+18,2.059076309,1.924996972,3.074248791
215,1.55965563423e+18,-2.147664547,4.778972626,1.16601181
216,1.55965563428e+18,0.5027977228,3.253819466,2.873129845
217,1.55965563433e+18,-11.60265541,4.290540695,-9.799766541
218,1.55965563439e+18,0.5506832004,-6.703969479,3.517189741
219,1.55965563444e+18,20.77033424,-53.89512634,5.698374271
220,1.55965563449e+18,13.11344337,-14.57155609,5.281770229
221,1.55965563454e+18,4.245049,-1.596981287,4.625739098
222,1.55965563459e+18,2.209915638,-0.9720755816,5.217124939
223,1.55965563465e+18,6.162863255,-4.726298332,7.568302631
224,1.5596556347e+18,18.13423729,-8.269824982,10.2666502
225,1.55965563475e+18,14.04481602,-10.43424988,7.86519289
226,1.5596556348e+18,6.962551117,-2.858764172,10.90113354
227,1.55965563485e+18,1.649655342,-1.67599237,-0.8834874034
228,1.55965563491e+18,-1.295302629,-0.1364736706,-10.49650097
229,1.55965563496e+18,0.5674431324,3.526766777,-1.577827096
230,1.55965563501e+18,-13.89637089,5.078257084,-12.67768478
231,1.55965563506e+18,9.850046158,-13.4893446,-2.909043789
232,1.55965563511e+18,22.47984695,-31.44161606,7.690410614
233,1.55965563517e+18,10.05595398,-24.1342907,2.715107679
234,1.55965563522e+18,9.349642754,-4.302511692,8.918673515
235,1.55965563527e+18,5.080651283,3.600989342,8.470944405
236,1.55965563532e+18,2.964112282,-5.593026161,5.118959427
237,1.55965563537e+18,10.31214142,-18.55562973,4.312088966
238,1.55965563543e+18,16.87245369,-9.86680603,3.387898922
239,1.55965563548e+18,11.58829021,-8.719948769,-2.171607256
240,1.55965563553e+18,4.690384388,-6.974522591,-3.866753817
241,1.55965563558e+18,-5.624151707,5.868367672,-3.694365978
242,1.55965563563e+18,22.35055542,4.513207912,25.27635956
243,1.55965563569e+18,-16.40078163,13.84848595,-11.62899303
244,1.55965563574e+18,6.371165276,-20.94511604,0.8786988258
245,1.55965563579e+18,20.31542206,-33.8718071,9.579493523
246,1.55965563584e+18,7.115784645,-18.9219532,-5.305713177
247,1.55965563589e+18,1.575432777,-6.277788639,2.051893473
248,1.55965563595e+18,3.703943014,1.65444386,3.526766777
249,1.559655636e+18,4.515602112,-3.567469358,4.676018715
250,1.55965563605e+18,7.314509392,-8.367990494,1.470084786
251,1.5596556361e+18,19.30264282,-13.92270756,0.1005595401
252,1.55965563615e+18,13.47976685,-10.71916866,0.6584255695
253,1.55965563621e+18,5.897099018,-3.471698523,0.07901106775
254,1.55965563626e+18,-1.738243461,4.75024128,-3.759011507
255,1.55965563631e+18,5.633728504,0.2681587934,4.910657406
256,1.55965563636e+18,-8.174054146,11.05676079,-8.751074791
257,1.55965563641e+18,-4.240260601,-4.628133297,0.5099805593
258,1.55965563647e+18,23.98344994,-32.10243607,11.90194035
259,1.55965563652e+18,9.035993576,-25.55409431,1.963305354
260,1.55965563657e+18,9.191620827,-13.36963081,1.359948039
261,1.55965563662e+18,5.755836487,0.8906702399,4.477293968
262,1.55965563667e+18,-1.494027495,-4.221106529,-2.399063349
263,1.55965563673e+18,7.745479107,-8.684034348,4.755029678
264,1.55965563678e+18,17.48299408,-11.58589554,7.616188049
265,1.55965563683e+18,7.443800449,-8.736708641,6.179623127
266,1.55965563688e+18,4.66883564,-0.8427847624,2.669616461
267,1.55965563693e+18,1.596981287,4.721509933,2.695953369
268,1.55965563699e+18,4.666441441,2.181184292,8.111803055
269,1.55965563704e+18,10.22834206,1.924996972,3.059883118
270,1.55965563709e+18,-7.448588848,1.565855742,-2.648067951
271,1.55965563714e+18,2.061470509,-3.265790939,-0.1628106833
272,1.55965563719e+18,12.71599388,-19.80783463,5.425426483
273,1.55965563725e+18,17.36567497,-21.57959938,5.099805355
274,1.5596556373e+18,6.201171875,-11.45421028,3.871542454
275,1.55965563735e+18,3.038334846,-0.634482801,2.490045786
276,1.5596556374e+18,8.250671387,-5.075862408,7.503657341
277,1.55965563745e+18,11.54040432,-25.03453827,3.282550812
278,1.5596556375e+18,12.62501144,-14.95224571,6.72551775
279,1.55965563756e+18,7.709564686,-8.221940041,5.758230686
280,1.55965563761e+18,4.38870573,0.8236305118,-0.9385557175
281,1.55965563766e+18,-1.309668303,4.441379547,-6.773403645
282,1.55965563771e+18,3.055094719,6.136526108,-0.7757450342
283,1.55965563776e+18,-6.979310989,-1.922602654,-3.162837029
284,1.55965563782e+18,14.69366455,-19.17574692,30.33306694
285,1.55965563787e+18,4.280963421,-13.34089947,9.462174416
286,1.55965563792e+18,0.2490045726,-24.48864365,2.681587696
287,1.55965563797e+18,6.751854897,-18.55802345,5.892310143
288,1.55965563802e+18,11.14774323,3.581835032,1.118126392
289,1.55965563808e+18,0.5506832004,-6.457359314,3.186779737
290,1.55965563813e+18,10.6545229,-13.18527126,4.958543301
291,1.55965563818e+18,17.52848625,-10.69522572,10.77663136
292,1.55965563823e+18,3.75422287,-10.58030033,4.965725899
293,1.55965563828e+18,2.648067951,-4.597007751,3.071854591
294,1.55965563834e+18,-0.004788549617,2.238646984,-5.154873848
295,1.55965563839e+18,-5.475706577,2.77735877,-4.589824677
296,1.55965563844e+18,-10.67607117,9.342460632,-1.659232497
297,1.55965563849e+18,-9.213169098,2.645673752,-6.215537548
298,1.55965563854e+18,9.723150253,-19.15419769,5.157268047
299,1.5596556386e+18,22.47745132,-54.2399025,-2.875524044
300,1.55965563865e+18,-1.896265626,-13.06316376,-2.126116037
301,1.5596556387e+18,11.22196579,-1.072635174,7.470137596
302,1.55965563875e+18,2.320052385,-5.391906738,3.354378939
303,1.5596556388e+18,5.399089813,-8.485309601,4.577853203
304,1.55965563886e+18,10.51326084,-14.77267551,1.82443738
305,1.55965563891e+18,9.756669998,-5.509226322,8.554743767
306,1.55965563896e+18,11.23872566,-1.642472506,6.239480019
307,1.55965563901e+18,3.292127848,2.090201855,-2.176395893
308,1.55965563906e+18,-1.477267504,4.417437077,-4.441379547
309,1.55965563912e+18,12.32572651,0.08140534163,4.371945858
310,1.55965563917e+18,-9.581888199,-0.4525179267,-7.40070343
311,1.55965563922e+18,-0.4094209969,-4.608979225,5.272192955
312,1.55965563927e+18,16.04882431,-20.56921577,10.99690437
313,1.55965563932e+18,3.883513689,-28.85819435,2.456526041
314,1.55965563938e+18,10.83648777,-9.481328011,5.892310143
315,1.55965563943e+18,9.701601982,5.444581032,5.415849686
316,1.55965563948e+18,0.6871568561,-11.59307861,0.8954587579
317,1.55965563953e+18,5.183605194,-14.72000122,4.652075768
318,1.55965563958e+18,9.531607628,-9.529213905,8.425453186
319,1.55965563964e+18,10.03201103,0.002394274808,12.12221336
320,1.55965563969e+18,6.158074856,4.13730669,6.567495823
321,1.55965563974e+18,-0.1221080124,2.085413456,-4.532361984
322,1.55965563979e+18,-2.707924843,2.844398499,1.225868702
323,1.55965563984e+18,-11.82053471,3.261002302,-2.437371731
324,1.5596556399e+18,-3.64887476,1.096577883,0.4956148863
325,1.55965563995e+18,6.701575279,-18.22521973,14.22917557
326,1.55965564e+18,12.9410553,-25.44874763,15.4406786
327,1.55965564005e+18,11.26027489,-12.62022209,8.612206459
328,1.5596556401e+18,2.188367128,-6.61777544,7.503657341
329,1.55965564016e+18,7.297749519,-2.456526041,7.211555958
330,1.55965564021e+18,8.056735039,-5.624151707,6.751854897
331,1.55965564026e+18,10.56114578,-10.74311066,8.166871071
332,1.55965564031e+18,6.684815407,-3.706337452,8.537983894
333,1.55965564036e+18,3.639297724,3.181991339,9.158101082
334,1.55965564042e+18,1.015172482,1.86514008,6.9098773
335,1.55965564047e+18,-2.238646984,-1.745426297,0.7158881426
336,1.55965564052e+18,15.54123783,-2.978477955,1.649655342
337,1.55965564057e+18,-21.03130913,6.249057293,-11.73912907
338,1.55965564062e+18,0.0287312977,-8.724737167,14.320158
