,Time (s),X (m/s^2),Y (m/s^2),Z (m/s^2)
0,1.5596532e+18,-0.09235794067,-0.1450483704,9.890083466
1,1.5596532004e+18,-0.06481521606,-0.03218307495,9.854158173
2,1.5596532008e+18,-0.06376739502,-0.04236190796,9.854906616
3,1.55965320121e+18,-0.07050338745,-0.05852828979,9.858050079
4,1.55965320161e+18,-0.08292755127,-0.06511459351,9.840835876
5,1.55965320201e+18,-0.08622070312,-0.04415817261,9.84158432
6,1.55965320241e+18,-0.05074447632,-0.04984634399,9.833201752
7,1.55965320281e+18,-0.05613327026,-0.03457809448,9.885443115
8,1.55965320322e+18,-0.06346801758,-0.04251159668,9.849218445
9,1.55965320362e+18,-0.05254074097,-0.06137237549,9.850415955
10,1.55965320402e+18,-0.07020401001,-0.05523513794,9.843380585
11,1.55965320442e+18,-0.08113128662,-0.04550537109,9.86149292
12,1.55965320482e+18,-0.06391708374,-0.04161346436,9.865684204
13,1.55965320523e+18,-0.07200027466,-0.04430786133,9.846973114
14,1.55965320563e+18,-0.07185058594,-0.0470022583,9.848170624
15,1.55965320603e+18,-0.07753875732,-0.04550537109,9.840835876
16,1.55965320643e+18,-0.09520202637,-0.06271957397,9.868977356
17,1.55965320683e+18,-0.0679586792,-0.05733078003,9.840536499
18,1.55965320724e+18,-0.06616241455,-0.06167175293,9.852511597
19,1.55965320764e+18,-0.07484436035,-0.06197113037,9.865085449
20,1.55965320804e+18,-0.08307723999,-0.04849914551,9.872120819
21,1.55965320844e+18,-0.076640625,-0.04924758911,9.859996033
22,1.55965320884e+18,-0.06810836792,-0.06077362061,9.857750702
23,1.55965320924e+18,-0.07454498291,-0.05403762817,9.850715332
24,1.55965320965e+18,-0.06182144165,-0.05972579956,9.865534515
25,1.55965321005e+18,-0.06391708374,-0.0390687561,9.859696655
26,1.55965321045e+18,-0.05254074097,-0.04415817261,9.842632141
27,1.55965321085e+18,-0.0730480957,-0.04894821167,9.857301636
28,1.55965321125e+18,-0.05388793945,-0.05972579956,9.854607239
29,1.55965321166e+18,-0.06676116943,-0.06212081909,9.864486694
30,1.55965321206e+18,-0.06556365967,-0.02739303589,9.855505371
31,1.55965321246e+18,-0.07694000244,-0.03936813354,9.872569885
32,1.55965321286e+18,-0.05523513794,-0.05104385376,9.871522064
33,1.55965321326e+18,-0.07888595581,-0.05748046875,9.856253815
34,1.55965321367e+18,-0.06631210327,-0.03128494263,9.866582336
35,1.55965321407e+18,-0.06676116943,-0.03592529297,9.859996033
36,1.55965321447e+18,-0.05763015747,-0.0347277832,9.867929535
37,1.55965321487e+18,-0.06152206421,-0.04715194702,9.862840118
38,1.55965321527e+18,-0.06152206421,-0.02829116821,9.857301636
39,1.55965321568e+18,-0.06750961304,-0.0513432312,9.8498172
40,1.55965321608e+18,-0.05224136353,-0.05328918457,9.86493576
41,1.55965321648e+18,-0.0672102356,-0.03622467041,9.873318329
42,1.55965321688e+18,-0.06601272583,-0.04864883423,9.859546967
43,1.55965321728e+18,-0.06316864014,-0.03532653809,9.865384827
44,1.55965321768e+18,-0.04430786133,-0.05254074097,9.864786072
45,1.55965321809e+18,-0.07050338745,-0.0505947876,9.863738251
46,1.55965321849e+18,-0.05673202515,-0.04086502075,9.880802765
47,1.55965321889e+18,-0.06122268677,-0.05014572144,9.867031403
48,1.55965321929e+18,-0.07125183105,-0.04879852295,9.86493576
49,1.55965321969e+18,-0.06062393188,-0.0419128418,9.867630157
50,1.5596532201e+18,-0.05343887329,-0.04969665527,9.873767395
51,1.5596532205e+18,-0.06825805664,-0.05418731689,9.851314087
52,1.5596532209e+18,-0.07604187012,-0.06346801758,9.863289185
53,1.5596532213e+18,-0.0715512085,-0.04251159668,9.880353699
54,1.5596532217e+18,-0.05583389282,-0.04311035156,9.853110352
55,1.55965322211e+18,-0.04550537109,-0.05583389282,9.868378601
56,1.55965322251e+18,-0.07140151978,-0.02439926147,9.862989807
57,1.55965322291e+18,-0.07559280396,-0.04490661621,9.84861969
58,1.55965322331e+18,-0.06975494385,-0.05942642212,9.886191559
59,1.55965322371e+18,-0.07484436035,-0.07140151978,9.852511597
60,1.55965322412e+18,-0.08053253174,-0.04326004028,9.872869263
61,1.55965322452e+18,-0.07798782349,-0.0462538147,9.871671753
62,1.55965322492e+18,-0.05957611084,-0.03083587646,9.854906616
63,1.55965322532e+18,-0.06376739502,-0.03592529297,9.874964905
64,1.55965322572e+18,-0.05763015747,-0.05583389282,9.854307861
65,1.55965322613e+18,-0.06346801758,-0.03742218018,9.857601013
66,1.55965322653e+18,-0.05418731689,-0.04640350342,9.865384827
67,1.55965322693e+18,-0.05254074097,-0.04041595459,9.877958679
68,1.55965322733e+18,-0.07424560547,-0.03083587646,9.873767395
69,1.55965322773e+18,-0.0520916748,-0.03562591553,9.865085449
70,1.55965322814e+18,-0.06631210327,-0.033230896,9.863887939
71,1.55965322854e+18,-0.05029541016,-0.04206253052,9.867031403
72,1.55965322894e+18,-0.07185058594,-0.04565505981,9.858798523
73,1.55965322934e+18,-0.06706054688,-0.04760101318,9.865983582
74,1.55965322974e+18,-0.05867797852,-0.0556842041,9.884245605
75,1.55965323014e+18,-0.06915618896,-0.04385879517,9.874515839
76,1.55965323055e+18,-0.06152206421,-0.04041595459,9.865534515
77,1.55965323095e+18,-0.06107299805,-0.0303868103,9.87556366
78,1.55965323135e+18,-0.06930587769,-0.02020797729,9.852212219
79,1.55965323175e+18,-0.05448669434,-0.03442840576,9.836195526
80,1.55965323215e+18,-0.08083190918,-0.0556842041,9.840686188
81,1.55965323256e+18,-0.06466552734,-0.06137237549,9.863139496
82,1.55965323296e+18,-0.07065307617,-0.0477507019,9.873917084
83,1.55965323336e+18,-0.0940045166,-0.05688171387,9.844877472
84,1.55965323376e+18,-0.06032455444,-0.05284011841,9.847571869
85,1.55965323416e+18,-0.05358856201,-0.0303868103,9.857601013
86,1.55965323457e+18,-0.0715512085,-0.04296066284,9.873917084
87,1.55965323497e+18,-0.05343887329,-0.04116439819,9.846973114
88,1.55965323537e+18,-0.07379653931,-0.04819976807,9.873767395
89,1.55965323577e+18,-0.08113128662,-0.05284011841,9.872869263
90,1.55965323617e+18,-0.06346801758,-0.05269042969,9.876012726
91,1.55965323658e+18,-0.05987548828,-0.05403762817,9.86852829
92,1.55965323698e+18,-0.07933502197,-0.05119354248,9.849218445
93,1.55965323738e+18,-0.05104385376,-0.0556842041,9.858648834
94,1.55965323778e+18,-0.06421646118,-0.05179229736,9.865085449
95,1.55965323818e+18,-0.04849914551,-0.04041595459,9.871222687
96,1.55965323859e+18,-0.06541397095,-0.04879852295,9.872569885
97,1.55965323899e+18,-0.05882766724,-0.0419128418,9.863289185
98,1.55965323939e+18,-0.06331832886,-0.0556842041,9.869276733
99,1.55965323979e+18,-0.06735992432,-0.06047424316,9.863438873
100,1.55965324019e+18,-0.06301895142,-0.04864883423,9.877060547
101,1.5596532406e+18,-0.07095245361,-0.03951782227,9.866432648
102,1.559653241e+18,-0.07140151978,-0.04415817261,9.849966888
103,1.5596532414e+18,-0.05388793945,-0.0477507019,9.874066772
104,1.5596532418e+18,-0.03487747192,-0.03173400879,9.868677979
105,1.5596532422e+18,-0.04924758911,-0.05718109131,9.859546967
106,1.55965324261e+18,-0.05328918457,-0.05448669434,9.863588562
107,1.55965324301e+18,-0.05777984619,-0.04430786133,9.880653076
108,1.55965324341e+18,-0.05284011841,-0.04251159668,9.8590979
109,1.55965324381e+18,-0.05179229736,-0.05014572144,9.872569885
110,1.55965324421e+18,-0.060025177,-0.03667373657,9.885143738
111,1.55965324462e+18,-0.06616241455,-0.05897735596,9.865833893
112,1.55965324502e+18,-0.06182144165,-0.07125183105,9.854158173
113,1.55965324542e+18,-0.06706054688,-0.04834945679,9.86733078
114,1.55965324582e+18,-0.05104385376,-0.04161346436,9.850715332
115,1.55965324622e+18,-0.05433700562,-0.03487747192,9.854607239
116,1.55965324663e+18,-0.06466552734,-0.05164260864,9.870474243
117,1.55965324703e+18,-0.04879852295,-0.060025177,9.878557434
118,1.55965324743e+18,-0.06137237549,-0.0477507019,9.86269043
119,1.55965324783e+18,-0.06541397095,-0.04011657715,9.880802765
120,1.55965324823e+18,-0.06316864014,-0.06346801758,9.870773621
121,1.55965324863e+18,-0.05403762817,-0.04430786133,9.871372375
122,1.55965324904e+18,-0.06182144165,-0.04954696655,9.876910858
123,1.55965324944e+18,-0.0549357605,-0.05179229736,9.858199768
124,1.55965324984e+18,-0.06107299805,-0.04715194702,9.864337006
125,1.55965325024e+18,-0.06376739502,-0.05194198608,9.853559418
126,1.55965325064e+18,-0.05822891235,-0.03996688843,9.856104126
127,1.55965325105e+18,-0.06541397095,-0.04730163574,9.823921051
128,1.55965325145e+18,-0.06122268677,-0.04999603271,9.893526306
129,1.55965325185e+18,-0.06256988525,-0.05358856201,9.840835876
130,1.55965325225e+18,-0.05298980713,-0.03233276367,9.88020401
131,1.55965325265e+18,-0.07020401001,-0.04730163574,9.874815216
132,1.55965325306e+18,-0.05373825073,-0.03727249146,9.857900391
133,1.55965325346e+18,-0.07035369873,-0.04760101318,9.865983582
134,1.55965325386e+18,-0.05538482666,-0.04670288086,9.859846344
135,1.55965325426e+18,-0.07050338745,-0.06451583862,9.845925293
136,1.55965325466e+18,-0.06511459351,-0.04326004028,9.844877472
137,1.55965325507e+18,-0.06152206421,-0.05149291992,9.871372375
138,1.55965325547e+18,-0.07619155884,-0.0390687561,9.858798523
139,1.55965325587e+18,-0.07170089722,-0.06316864014,9.85326004
140,1.55965325627e+18,-0.06212081909,-0.04595443726,9.861642609
141,1.55965325667e+18,-0.06242019653,-0.03562591553,9.858349457
142,1.55965325707e+18,-0.06451583862,-0.0296383667,9.86733078
143,1.55965325748e+18,-0.1004411316,-0.05284011841,9.866582336
144,1.55965325788e+18,-0.06212081909,-0.04460723877,9.878856812
145,1.55965325828e+18,-0.07065307617,-0.04565505981,9.855205994
146,1.55965325868e+18,-0.05029541016,-0.04790039063,9.869576111
147,1.55965325908e+18,-0.06391708374,-0.04715194702,9.875713348
148,1.55965325949e+18,-0.04894821167,-0.05598358154,9.880952454
149,1.55965325989e+18,-0.06885681152,-0.04550537109,9.887987823
150,1.55965326029e+18,-0.05882766724,-0.05179229736,9.87780899
151,1.55965326069e+18,-0.04400848389,-0.05987548828,9.868079224
152,1.55965326109e+18,-0.06765930176,-0.05074447632,9.87197113
153,1.5596532615e+18,-0.07409591675,-0.05269042969,9.87197113
154,1.5596532619e+18,-0.07454498291,-0.05194198608,9.884245605
155,1.5596532623e+18,-0.07289840698,-0.05403762817,9.864187317
156,1.5596532627e+18,-0.06047424316,-0.04236190796,9.868677979
157,1.5596532631e+18,-0.06406677246,-0.03338058472,9.868977356
158,1.5596532635e+18,-0.06271957397,-0.05553451538,9.855954437
159,1.55965326391e+18,-0.05598358154,-0.05703140259,9.870923309
160,1.55965326431e+18,-0.06137237549,-0.03981719971,9.854307861
161,1.55965326471e+18,-0.04535568237,-0.04445755005,9.879305878
162,1.55965326511e+18,-0.060025177,-0.05852828979,9.857601013
163,1.55965326551e+18,-0.04595443726,-0.05718109131,9.858199768
164,1.55965326592e+18,-0.07140151978,-0.0260458374,9.856702881
165,1.55965326632e+18,-0.05613327026,-0.05583389282,9.876761169
166,1.55965326672e+18,-0.07559280396,-0.04834945679,9.864786072
167,1.55965326712e+18,-0.07559280396,-0.04161346436,9.887987823
168,1.55965326752e+18,-0.05643264771,-0.07140151978,9.868827667
169,1.55965326792e+18,-0.07484436035,-0.06197113037,9.863588562
170,1.55965326833e+18,-0.08128097534,-0.05628295898,9.864037628
171,1.55965326873e+18,-0.05613327026,-0.05239105225,9.868378601
172,1.55965326913e+18,-0.08442443848,-0.05643264771,9.883347473
173,1.55965326953e+18,-0.07634124756,-0.05703140259,9.887538757
174,1.55965326993e+18,-0.08158035278,-0.05074447632,9.8590979
175,1.55965327034e+18,-0.06676116943,-0.06556365967,9.884994049
176,1.55965327074e+18,-0.07095245361,-0.06616241455,9.868677979
177,1.55965327114e+18,-0.06391708374,-0.05658233643,9.874515839
178,1.55965327154e+18,-0.07679031372,-0.05523513794,9.874964905
179,1.55965327194e+18,-0.07259902954,-0.06586303711,9.865085449
180,1.55965327234e+18,-0.06780899048,-0.05224136353,9.885143738
181,1.55965327275e+18,-0.07768844604,-0.05104385376,9.877509613
182,1.55965327315e+18,-0.06960525513,-0.03996688843,9.863139496
183,1.55965327355e+18,-0.0520916748,-0.05298980713,9.849667511
184,1.55965327395e+18,-0.05972579956,-0.04370910645,9.840686188
185,1.55965327435e+18,-0.08187973022,-0.03263214111,9.849517822
186,1.55965327476e+18,-0.05538482666,-0.04101470947,9.86493576
187,1.55965327516e+18,-0.06406677246,-0.06481521606,9.854906616
188,1.55965327556e+18,-0.07394622803,-0.04400848389,9.871222687
189,1.55965327596e+18,-0.07259902954,-0.06406677246,9.880353699
190,1.55965327636e+18,-0.06855743408,-0.05613327026,9.84861969
191,1.55965327676e+18,-0.06242019653,-0.06062393188,9.864486694
192,1.55965327717e+18,-0.0817300415,-0.06661148071,9.880952454
193,1.55965327757e+18,-0.07813751221,-0.06062393188,9.856104126
194,1.55965327797e+18,-0.07364685059,-0.05538482666,9.86852829
195,1.55965327837e+18,-0.07694000244,-0.05942642212,9.867031403
196,1.55965327877e+18,-0.07454498291,-0.04161346436,9.86149292
197,1.55965327918e+18,-0.06975494385,-0.04805007935,9.863289185
198,1.55965327958e+18,-0.0643661499,-0.06227050781,9.867031403
199,1.55965327998e+18,-0.06646179199,-0.03727249146,9.880503387
200,1.55965328038e+18,-0.07544311523,-0.04176315308,9.867630157
201,1.55965328078e+18,-0.0715512085,-0.05807922363,9.876012726
202,1.55965328118e+18,-0.06735992432,-0.03173400879,9.885892181
203,1.55965328159e+18,-0.09011260986,-0.05912704468,9.877509613
204,1.55965328199e+18,-0.06541397095,-0.05523513794,9.853409729
205,1.55965328239e+18,-0.07005432129,-0.03083587646,9.887838135
206,1.55965328279e+18,-0.06107299805,-0.07125183105,9.863738251
207,1.55965328319e+18,-0.05972579956,-0.05239105225,9.862241364
208,1.5596532836e+18,-0.06945556641,-0.04520599365,9.874815216
209,1.559653284e+18,-0.06167175293,-0.03592529297,9.870025177
210,1.5596532844e+18,-0.07214996338,-0.04655319214,9.871372375
211,1.5596532848e+18,-0.08337661743,-0.05523513794,9.882898407
212,1.5596532852e+18,-0.08053253174,-0.03742218018,9.8790065
213,1.55965328561e+18,-0.07020401001,-0.03293151855,9.8697258
214,1.55965328601e+18,-0.08128097534,-0.06466552734,9.854756927
215,1.55965328641e+18,-0.07604187012,-0.04730163574,9.862241364
216,1.55965328681e+18,-0.07200027466,-0.03697311401,9.847721558
217,1.55965328721e+18,-0.06960525513,-0.04475692749,9.870025177
218,1.55965328761e+18,-0.05119354248,-0.04296066284,9.873018951
219,1.55965328802e+18,-0.06331832886,-0.04116439819,9.876761169
220,1.55965328842e+18,-0.05598358154,-0.06256988525,9.870324554
221,1.55965328882e+18,-0.05643264771,-0.02799179077,9.864636383
222,1.55965328922e+18,-0.06825805664,-0.03682342529,9.855056305
223,1.55965328962e+18,-0.05343887329,-0.0477507019,9.840835876
224,1.55965329003e+18,-0.05867797852,-0.0643661499,9.867630157
225,1.55965329043e+18,-0.06391708374,-0.05478607178,9.882748718
226,1.55965329083e+18,-0.06990463257,-0.05628295898,9.864337006
227,1.55965329123e+18,-0.08637039185,-0.06616241455,9.865235138
228,1.55965329163e+18,-0.04550537109,-0.03203338623,9.851613464
229,1.55965329203e+18,-0.06780899048,-0.04400848389,9.879305878
230,1.55965329244e+18,-0.06256988525,-0.05598358154,9.865085449
231,1.55965329284e+18,-0.06032455444,-0.04415817261,9.889933777
232,1.55965329324e+18,-0.06481521606,-0.05613327026,9.880054321
233,1.55965329364e+18,-0.08741821289,-0.04580474854,9.872270508
234,1.55965329404e+18,-0.08652008057,-0.06256988525,9.863139496
235,1.55965329445e+18,-0.06182144165,-0.0715512085,9.860894165
236,1.55965329485e+18,-0.06825805664,-0.05373825073,9.885143738
237,1.55965329525e+18,-0.09580078125,-0.05718109131,9.856553192
238,1.55965329565e+18,-0.06586303711,-0.05763015747,9.8697258
239,1.55965329605e+18,-0.05284011841,-0.03367996216,9.867779846
240,1.55965329645e+18,-0.06885681152,-0.06676116943,9.874815216
241,1.55965329686e+18,-0.0715512085,-0.03023712158,9.859846344
242,1.55965329726e+18,-0.05538482666,-0.04864883423,9.875413971
243,1.55965329766e+18,-0.05867797852,-0.04370910645,9.868079224
244,1.55965329806e+18,-0.06316864014,-0.05957611084,9.879455566
245,1.55965329846e+18,-0.07140151978,-0.0477507019,9.886191559
246,1.55965329887e+18,-0.06975494385,-0.04086502075,9.864187317
247,1.55965329927e+18,-0.06481521606,-0.05373825073,9.842183075
248,1.55965329967e+18,-0.05254074097,-0.0419128418,9.869276733
249,1.55965330007e+18,-0.07454498291,-0.04056564331,9.874066772
250,1.55965330047e+18,-0.08202941895,-0.04355941772,9.889335022
251,1.55965330087e+18,-0.05688171387,-0.06271957397,9.880353699
252,1.55965330128e+18,-0.06661148071,-0.04505630493,9.878108368
253,1.55965330168e+18,-0.07484436035,-0.05343887329,9.86613327
254,1.55965330208e+18,-0.0636177063,-0.06960525513,9.864786072
255,1.55965330248e+18,-0.05897735596,-0.06122268677,9.882748718
256,1.55965330288e+18,-0.06137237549,-0.05224136353,9.870324554
257,1.55965330329e+18,-0.06227050781,-0.05029541016,9.875264282
258,1.55965330369e+18,-0.07948471069,-0.05583389282,9.848170624
259,1.55965330409e+18,-0.05284011841,-0.04954696655,9.856403503
260,1.55965330449e+18,-0.0520916748,-0.06331832886,9.866732025
261,1.55965330489e+18,-0.05763015747,-0.0296383667,9.871222687
262,1.55965330529e+18,-0.07200027466,-0.0549357605,9.856553192
263,1.5596533057e+18,-0.0672102356,-0.05448669434,9.872569885
264,1.5596533061e+18,-0.05119354248,-0.05703140259,9.86493576
265,1.5596533065e+18,-0.07259902954,-0.05089416504,9.88020401
266,1.5596533069e+18,-0.07574249268,-0.03293151855,9.864037628
267,1.5596533073e+18,-0.060025177,-0.03547622681,9.877958679
268,1.5596533077e+18,-0.06945556641,-0.05194198608,9.903106384
269,1.55965330811e+18,-0.060025177,-0.04086502075,9.866282959
270,1.55965330851e+18,-0.04730163574,-0.04041595459,9.884395294
271,1.55965330891e+18,-0.04206253052,-0.04984634399,9.817334747
272,1.55965330931e+18,-0.07828720093,-0.02290237427,9.851164398
273,1.55965330971e+18,-0.06646179199,-0.04939727783,9.87197113
274,1.55965331012e+18,-0.04116439819,-0.04490661621,9.866881714
275,1.55965331052e+18,-0.05269042969,-0.05044509888,9.878407745
276,1.55965331092e+18,-0.05733078003,-0.04805007935,9.852062531
277,1.55965331132e+18,-0.07888595581,-0.06421646118,9.884095917
278,1.55965331172e+18,-0.07649093628,-0.04430786133,9.870174866
279,1.55965331212e+18,-0.05538482666,-0.04805007935,9.852212219
280,1.55965331253e+18,-0.05403762817,-0.060025177,9.874066772
281,1.55965331293e+18,-0.06646179199,-0.04296066284,9.868228912
282,1.55965331333e+18,-0.06271957397,-0.05942642212,9.872420197
283,1.55965331373e+18,-0.05553451538,-0.03682342529,9.850116577
284,1.55965331413e+18,-0.05912704468,-0.03263214111,9.851763153
285,1.55965331454e+18,-0.0672102356,-0.04969665527,9.864187317
286,1.55965331494e+18,-0.06765930176,-0.05523513794,9.850865021
287,1.55965331534e+18,-0.06212081909,-0.04580474854,9.853858795
288,1.55965331574e+18,-0.05957611084,-0.06541397095,9.858199768
289,1.55965331614e+18,-0.06481521606,-0.04490661621,9.863289185
290,1.55965331654e+18,-0.05523513794,-0.05867797852,9.870923309
291,1.55965331695e+18,-0.04385879517,-0.06451583862,9.886490936
292,1.55965331735e+18,-0.05373825073,-0.05014572144,9.865684204
293,1.55965331775e+18,-0.0505947876,-0.05119354248,9.879455566
294,1.55965331815e+18,-0.06107299805,-0.04251159668,9.870773621
295,1.55965331855e+18,-0.04490661621,-0.03847000122,9.873767395
296,1.55965331895e+18,-0.05867797852,-0.04505630493,9.845625916
297,1.55965331936e+18,-0.0715512085,-0.05284011841,9.850565643
298,1.55965331976e+18,-0.05942642212,-0.06032455444,9.868228912
299,1.55965332016e+18,-0.06256988525,-0.07439529419,9.892179108
300,1.55965332056e+18,-0.06376739502,-0.0505947876,9.875413971
301,1.55965332096e+18,-0.06735992432,-0.05089416504,9.868378601
302,1.55965332137e+18,-0.08756790161,-0.04430786133,9.861043854
303,1.55965332177e+18,-0.0809815979,-0.02993774414,9.877359924
304,1.55965332217e+18,-0.07050338745,-0.0513432312,9.873468018
305,1.55965332257e+18,-0.07963439941,-0.02978805542,9.908046112
306,1.55965332297e+18,-0.06271957397,-0.03727249146,9.84278183
307,1.55965332337e+18,-0.07334747314,-0.05763015747,9.888885956
308,1.55965332378e+18,-0.06017486572,-0.05224136353,9.863887939
309,1.55965332418e+18,-0.06706054688,-0.04685256958,9.880952454
310,1.55965332458e+18,-0.08337661743,-0.06227050781,9.863738251
311,1.55965332498e+18,-0.08008346558,-0.05403762817,9.853858795
312,1.55965332538e+18,-0.0477507019,-0.04400848389,9.883646851
313,1.55965332579e+18,-0.06092330933,-0.05224136353,9.851763153
314,1.55965332619e+18,-0.07424560547,-0.04505630493,9.885592804
