,Time (s),X (m/s^2),Y (m/s^2),Z (m/s^2)
0,1.559653556e+18,-6.620732117,6.784940643,10.13766861
1,1.5596535564e+18,-2.265987854,4.854554901,6.574927368
2,1.5596535568e+18,-1.462309113,2.736160126,7.923922119
3,1.5596535572e+18,-1.454674988,4.385729828,11.43232635
4,1.55965355761e+18,1.026714935,4.830005951,9.303453369
5,1.55965355801e+18,-0.1766326904,3.511547699,4.894372101
6,1.55965355841e+18,-0.712817688,5.248834991,4.146676941
7,1.55965355881e+18,0.7158114624,-0.9421408081,12.10278214
8,1.55965355921e+18,-0.08397537231,5.522615662,11.14597183
9,1.55965355961e+18,0.7955955505,4.287084961,4.680017853
10,1.55965356002e+18,-0.9452842712,2.697989502,8.159981232
11,1.55965356042e+18,-6.055956573,4.421355743,11.85579575
12,1.55965356082e+18,-5.309159546,5.379812622,7.694898376
13,1.55965356122e+18,-2.422562256,3.700305176,3.328777771
14,1.55965356162e+18,-6.159541168,3.332220612,7.611222382
15,1.55965356202e+18,-6.240522766,7.239245911,10.73402847
16,1.55965356242e+18,-1.968556366,5.216801605,5.559289398
17,1.55965356283e+18,-4.331991577,4.440815277,5.576503601
18,1.55965356323e+18,-4.722679138,8.278235321,6.823859711
19,1.55965356363e+18,-4.651427307,6.515800323,6.236481171
20,1.55965356403e+18,-3.3721875,4.336931305,3.258274384
21,1.55965356443e+18,-1.637444916,4.544250183,7.454198914
22,1.55965356483e+18,-2.581082611,6.099515991,6.753655701
23,1.55965356524e+18,-1.344653778,4.83719101,4.42405014
24,1.55965356564e+18,3.564836884,1.725312195,12.75467651
25,1.55965356604e+18,-1.931583252,1.953886871,10.05099884
26,1.55965356644e+18,-5.016817474,2.773582306,7.133116608
27,1.55965356684e+18,-5.395529938,4.973856812,9.79592926
28,1.55965356724e+18,-3.331023102,4.026476898,6.217171326
29,1.55965356764e+18,-5.366789703,1.473984833,10.45261368
30,1.55965356805e+18,-4.978497162,1.592987366,8.195158081
31,1.55965356845e+18,-4.266577606,2.530338135,8.8504953
32,1.55965356885e+18,-4.49664917,2.04998703,8.536148987
33,1.55965356925e+18,-4.430486755,3.136727142,8.442294159
34,1.55965356965e+18,-4.359983368,3.097059631,8.39065155
35,1.55965357005e+18,-3.918102264,2.908451843,8.435857544
36,1.55965357045e+18,-4.137845306,3.09017395,8.067922668
37,1.55965357086e+18,-3.994593201,2.694097595,8.600664825
38,1.55965357126e+18,-4.110751648,2.885998535,8.30293396
39,1.55965357166e+18,-4.30474823,2.817441101,8.54752533
40,1.55965357206e+18,-4.115391998,3.071163483,8.469986572
41,1.55965357246e+18,-4.106859741,2.922372894,8.335416412
42,1.55965357286e+18,-4.13859375,2.978506165,7.672894135
43,1.55965357326e+18,-4.050427094,2.550546112,8.765172729
44,1.55965357367e+18,-4.050576782,2.947520599,7.981402588
45,1.55965357407e+18,-4.30235321,2.906954956,8.464148712
46,1.55965357447e+18,-4.50488205,2.927013245,8.323740692
47,1.55965357487e+18,-4.546495514,3.101999359,8.184679871
48,1.55965357527e+18,-4.367617493,3.184028778,7.99517395
49,1.55965357567e+18,-4.393513641,3.134481812,8.310268707
50,1.55965357607e+18,-4.320914612,3.033441925,8.379424896
51,1.55965357648e+18,-4.307592316,2.927612,8.216713257
52,1.55965357688e+18,-3.937561798,2.910397797,8.411458282
53,1.55965357728e+18,-4.228856049,2.998115387,8.189170532
54,1.55965357768e+18,-4.207151184,2.828967133,8.181536407
55,1.55965357808e+18,-4.418361969,2.519560547,8.426576843
56,1.55965357848e+18,-4.121529236,2.753074951,8.479117584
57,1.55965357888e+18,-4.227957916,2.420017548,8.454418945
58,1.55965357929e+18,-4.227209473,2.491718445,8.647667084
59,1.55965357969e+18,-4.13619873,2.482587433,8.536148987
60,1.55965358009e+18,-4.282893677,2.53797226,8.597072296
61,1.55965358049e+18,-4.170627136,2.475552063,8.438851318
62,1.55965358089e+18,-4.196223907,2.414628754,8.42223587
63,1.55965358129e+18,-4.223916321,2.427651672,8.592731323
64,1.55965358169e+18,-4.164489899,2.271226959,8.859476624
65,1.55965358209e+18,-2.371219025,2.449506226,8.180937653
66,1.5596535825e+18,2.633922729,-0.6985972595,9.350605316
67,1.5596535829e+18,-0.2356100464,1.380429382,9.852960663
68,1.5596535833e+18,-0.5653742981,1.0776091,9.715845795
69,1.5596535837e+18,-0.6780899048,1.379381561,9.710307312
70,1.5596535841e+18,-0.526305542,1.182241516,9.508975983
71,1.5596535845e+18,-0.6402186584,1.132993927,9.68007019
72,1.5596535849e+18,-0.6304888916,0.8464897156,9.960736542
73,1.55965358531e+18,-0.4046086121,0.3016227722,9.449399872
74,1.55965358571e+18,-1.871707764,-1.867217102,9.998308411
75,1.55965358611e+18,-0.2778222656,-0.8907975769,9.904303894
76,1.55965358651e+18,-0.3085084534,-0.5255570984,10.37357803
77,1.55965358691e+18,0.7640112305,5.201233978,10.99568436
78,1.55965358731e+18,-0.02380050659,6.374494171,6.375092926
79,1.55965358771e+18,-1.935924225,1.885179749,11.65521286
80,1.55965358811e+18,-2.646496582,1.402283936,9.244176636
81,1.55965358852e+18,-2.271676025,1.38072876,9.141639862
82,1.55965358892e+18,-2.946772156,2.509980469,8.464597778
83,1.55965358932e+18,-2.53677475,1.606159973,9.313482513
84,1.55965358972e+18,-2.794838104,1.892963562,8.98746048
85,1.55965359012e+18,-2.891986084,1.647773438,9.57483902
86,1.55965359052e+18,-2.819237366,1.817221069,9.195378113
87,1.55965359092e+18,-2.68062561,1.669178925,9.498946838
88,1.55965359133e+18,-2.87836441,1.798210602,9.282197571
89,1.55965359173e+18,-2.879861298,1.636397095,9.281299438
90,1.55965359213e+18,-2.772983551,1.634451141,9.255103912
91,1.55965359253e+18,-2.852019196,1.695823517,9.326954498
92,1.55965359293e+18,-3.030897217,1.528321838,9.482930145
93,1.55965359333e+18,-2.973117371,1.482666779,9.517358551
94,1.55965359373e+18,-3.016676788,1.517843628,9.241033173
95,1.55965359414e+18,-3.019820251,1.533261566,9.385183411
96,1.55965359454e+18,-2.941982117,1.334474945,9.24717041
97,1.55965359494e+18,-3.004102936,1.350791016,9.372310181
98,1.55965359534e+18,-2.997666321,1.593735809,9.038354645
99,1.55965359574e+18,-3.082090759,1.683998108,9.313781891
100,1.55965359614e+18,-2.993175659,1.57966507,9.382788391
101,1.55965359654e+18,-2.990930328,1.737736359,9.170080719
102,1.55965359695e+18,-2.943029938,1.532064056,9.251062317
103,1.55965359735e+18,-3.041824493,1.561702423,9.423503723
104,1.55965359775e+18,-2.988684998,1.469793549,9.263037415
105,1.55965359815e+18,-2.96847702,1.385818176,9.347910919
106,1.55965359855e+18,-2.910996552,1.420396271,9.245823212
107,1.55965359895e+18,-2.928959198,1.448238373,9.268575897
108,1.55965359935e+18,-2.928061066,1.219813385,9.385183411
109,1.55965359976e+18,-2.966082001,1.270108795,9.231752472
110,1.55965360016e+18,-2.901566162,1.303788757,9.530231781
111,1.55965360056e+18,-2.929258575,1.41231308,9.352401581
112,1.55965360096e+18,-2.84678009,1.353036346,9.29986084
113,1.55965360136e+18,-2.928809509,1.528321838,9.10556488
114,1.55965360176e+18,-2.834655304,1.400787048,9.170380096
115,1.55965360216e+18,-2.929408264,1.508562927,9.302255859
116,1.55965360257e+18,-2.928510132,1.492845612,9.442514191
117,1.55965360297e+18,-2.954555969,1.35378479,9.807305603
118,1.55965360337e+18,-2.958597565,1.414857788,9.327702942
119,1.55965360377e+18,-2.878065033,1.454076233,9.217681732
120,1.55965360417e+18,-2.995870056,1.435963898,9.456285553
121,1.55965360457e+18,-2.881807251,1.584455109,9.308991852
122,1.55965360497e+18,-3.22130127,1.61349472,9.787846069
123,1.55965360538e+18,-3.189417572,1.689386902,9.564660187
124,1.55965360578e+18,-3.162623291,1.224603424,8.915609894
125,1.55965360618e+18,-3.430266724,1.490899658,8.792715454
126,1.55965360658e+18,-2.991678772,1.262175293,9.236243134
127,1.55965360698e+18,-3.343896332,1.543889465,9.41796524
128,1.55965360738e+18,-3.318149872,1.696871338,9.036857758
129,1.55965360778e+18,-3.527564392,1.833237762,8.937015381
130,1.55965360819e+18,-3.608995056,1.783840485,8.894204407
131,1.55965360859e+18,-3.310066681,1.73519165,8.916807404
132,1.55965360899e+18,-3.254532166,1.571132813,9.627080383
133,1.55965360939e+18,-3.139421539,1.706451416,9.304950256
134,1.55965360979e+18,-3.205284576,1.627116394,9.130113831
135,1.55965361019e+18,-3.270848236,1.472038879,9.310937805
136,1.55965361059e+18,-3.262016602,1.600322113,9.002429352
137,1.559653611e+18,-3.618425446,1.710043945,9.152267761
138,1.5596536114e+18,-3.413800964,1.534309387,9.077872467
139,1.5596536118e+18,-3.30662384,1.536554718,8.915310516
140,1.5596536122e+18,-3.500470734,1.415007477,9.16409317
141,1.5596536126e+18,-3.586841125,1.727856903,9.029223633
142,1.559653613e+18,-3.157683563,1.60885437,9.316476288
143,1.5596536134e+18,-1.367556152,0.7122189331,10.41219772
144,1.55965361381e+18,1.754950562,0.4478686523,9.343270569
145,1.55965361421e+18,1.46021347,0.4800517273,9.809401245
146,1.55965361461e+18,1.027164001,0.6108796692,10.20577698
147,1.55965361501e+18,1.076261902,0.3405418396,9.958790588
148,1.55965361541e+18,0.5451663208,0.7222480774,9.958940277
149,1.55965361581e+18,0.2728825378,1.922003174,9.384884033
150,1.55965361621e+18,1.983076172,1.389261017,9.204359436
151,1.55965361662e+18,4.403243408,2.47121109,6.215225372
152,1.55965361702e+18,-2.736160126,-1.408121796,20.00919067
153,1.55965361742e+18,-1.410516815,2.722538452,8.319100342
154,1.55965361782e+18,-1.951940918,2.173180847,10.40621017
155,1.55965361822e+18,-1.753753052,1.779948578,9.26827652
156,1.55965361862e+18,-1.496887207,1.465452576,9.760303345
157,1.55965361902e+18,-1.761237488,2.042053528,9.261091461
158,1.55965361943e+18,-1.359023895,1.563498688,9.623637543
159,1.55965361983e+18,-1.658251648,1.734143829,9.560917969
160,1.55965362023e+18,-1.965861969,1.529219971,9.26707901
161,1.55965362063e+18,-1.757794647,1.536554718,10.07524841
162,1.55965362103e+18,-1.681154022,1.586101685,9.294172668
163,1.55965362143e+18,-1.695524139,1.335223389,9.632918243
164,1.55965362183e+18,-2.19862793,1.266965332,11.05121887
165,1.55965362224e+18,1.417252808,1.843117218,8.879385223
166,1.55965362264e+18,0.233664093,1.85464325,10.04710693
167,1.55965362304e+18,-0.06197113037,1.963167572,9.664502563
168,1.55965362344e+18,0.9084608459,2.883004761,9.487271118
169,1.55965362384e+18,1.02387085,4.034709778,8.821755066
170,1.55965362424e+18,0.6849755859,3.308120728,9.683962097
171,1.55965362464e+18,2.180665283,4.360432434,8.526269531
172,1.55965362505e+18,1.983375549,4.203259277,8.474028168
173,1.55965362545e+18,1.357227631,4.330195312,8.203989716
174,1.55965362585e+18,-0.7225474548,5.792654114,7.854915619
175,1.55965362625e+18,-0.3508703613,5.618416443,7.279362488
176,1.55965362665e+18,-0.330662384,5.491630096,7.64071106
177,1.55965362705e+18,-0.6614744568,5.772745514,7.787106628
178,1.55965362745e+18,-0.4818479919,5.315596161,8.293503571
179,1.55965362786e+18,-0.5125341797,5.347479858,8.327333221
180,1.55965362826e+18,-0.8024812317,5.095404053,8.596174164
181,1.55965362866e+18,-0.5542973328,2.694546661,9.940528564
182,1.55965362906e+18,-0.01676513672,2.11315567,9.596394196
183,1.55965362946e+18,-0.1359173584,2.348166962,9.607321472
184,1.55965362986e+18,0.2854563904,2.289938049,9.367819519
185,1.55965363026e+18,-0.2480342102,1.713636475,10.12015503
186,1.55965363067e+18,-0.7946974182,2.601290588,9.451345825
187,1.55965363091e+18,-0.2728825378,2.048939209,9.41332489
188,1.55965363116e+18,-0.310304718,2.189047852,9.252409515
189,1.55965363141e+18,-0.2308200073,2.258503418,9.339977417
190,1.55965363167e+18,-0.1407073975,1.952090607,9.553433533
191,1.55965363192e+18,-0.264200592,1.697320404,9.739197235
192,1.55965363217e+18,-0.4132905579,1.811981964,9.613009644
193,1.55965363242e+18,-0.8475375366,2.013013916,10.05578888
194,1.55965363267e+18,-0.4055067444,1.798959045,9.722132721
195,1.55965363292e+18,-0.6140231323,1.590442657,10.12225067
196,1.55965363317e+18,-1.090632019,1.809287567,9.364077301
197,1.55965363342e+18,-1.21921463,1.942061462,9.743388519
198,1.55965363367e+18,0.347277832,2.968626709,8.546926575
199,1.55965363392e+18,0.3237767029,2.388283539,9.674831085
200,1.55965363417e+18,-0.2249821472,2.226020966,9.711504822
201,1.55965363443e+18,-0.157023468,2.080074463,9.510023804
202,1.55965363468e+18,-0.05643264771,1.899849243,9.594897308
203,1.55965363493e+18,-0.08696914673,2.053729248,9.572893066
204,1.55965363518e+18,-0.1782792664,1.916315002,9.653874664
205,1.55965363543e+18,-0.07888595581,1.856738892,9.588161316
206,1.55965363568e+18,-0.09804611206,1.758543091,9.591753845
207,1.55965363593e+18,-0.2146536255,1.670077057,9.723180542
208,1.55965363618e+18,-0.2486329651,1.788331146,9.726324005
209,1.55965363643e+18,-0.229921875,1.848356323,9.658215637
210,1.55965363668e+18,-0.2389031982,1.836381226,9.673932953
211,1.55965363693e+18,-0.2535726929,1.786385193,9.688752136
212,1.55965363718e+18,-0.2380050659,1.712438965,9.676028595
213,1.55965363743e+18,0.1196012878,2.310445404,9.029073944
214,1.55965363769e+18,1.065783691,3.687431946,8.897796936
215,1.55965363794e+18,1.53745285,3.914509735,8.716972961
216,1.55965363819e+18,1.540895691,4.300556946,8.711733856
217,1.55965363844e+18,1.102008362,3.940555573,8.809181213
218,1.55965363869e+18,0.726738739,3.478017426,9.455387421
219,1.55965363894e+18,0.7625143433,3.378773804,9.13490387
220,1.55965363919e+18,0.7955955505,3.174149323,9.444160767
221,1.55965363944e+18,0.7393125916,2.8678862,9.587412872
222,1.55965363969e+18,0.649050293,2.757116547,9.455986176
223,1.55965363994e+18,0.8229885864,2.559677124,9.417815552
224,1.55965364019e+18,0.7686515808,2.500250702,9.488917694
225,1.55965364045e+18,0.6948550415,2.585124207,9.449848938
226,1.5596536407e+18,0.7222480774,2.498753815,9.534123688
227,1.55965364095e+18,0.7484436035,2.491868134,9.581275635
228,1.5596536412e+18,0.7277865601,2.528092804,9.539362793
229,1.55965364145e+18,0.5037025452,2.577340393,9.531279602
230,1.5596536417e+18,0.6288423157,2.484683075,9.428742828
231,1.55965364195e+18,0.5417234802,2.573448486,9.526489563
232,1.5596536422e+18,0.6489006042,2.672991486,9.114845581
233,1.55965364245e+18,0.6227050781,2.497256927,9.590256958
234,1.5596536427e+18,0.5978567505,2.617756348,9.64264801
235,1.55965364295e+18,0.8502319336,2.305805054,9.604178009
236,1.5596536432e+18,0.4706213379,2.91234375,9.307794342
237,1.55965364345e+18,0.992585907,2.186203766,9.616153107
238,1.55965364371e+18,0.5004093933,2.621498566,9.701026611
239,1.55965364396e+18,0.6839277649,2.465971985,9.533075867
240,1.55965364421e+18,0.8336164856,2.407294006,9.489217072
241,1.55965364446e+18,0.4508624268,2.372266846,9.640552368
242,1.55965364471e+18,0.353714447,2.844235382,9.450447693
243,1.55965364496e+18,0.4086502075,2.780018921,9.409283295
244,1.55965364521e+18,0.4969665527,2.996768188,9.574689331
245,1.55965364546e+18,0.5956114197,3.130889282,9.374106445
246,1.55965364571e+18,0.5679190063,3.030597839,9.445957031
247,1.55965364596e+18,0.6611750793,2.888094177,9.49520462
248,1.55965364621e+18,0.578846283,2.919828186,9.376052399
249,1.55965364646e+18,0.5912704468,2.949167175,9.446705475
250,1.55965364672e+18,0.6864724731,3.150498505,9.432634735
251,1.55965364697e+18,0.9072633362,2.886297913,9.206155701
252,1.55965364722e+18,0.7952961731,2.670895844,9.666747894
253,1.55965364747e+18,0.7220983887,2.916385345,9.347461853
254,1.55965364772e+18,3.615880737,3.397634583,9.247918854
255,1.55965364797e+18,4.636009369,4.679718475,4.518952789
256,1.55965364822e+18,0.4252656555,5.799988861,5.14959137
257,1.55965364847e+18,1.782642975,1.281934204,12.09365112
258,1.55965364872e+18,-0.1791773987,1.213526459,8.683442688
259,1.55965364897e+18,-0.9939331055,0.952918396,9.371561737
260,1.55965364922e+18,-1.056952057,0.9949809265,9.42275528
261,1.55965364948e+18,-1.332379303,0.2538720703,9.87780899
262,1.55965364973e+18,-1.291663971,0.04924758911,9.818083191
263,1.55965364998e+18,-1.451531525,0.004640350342,9.890981598
264,1.55965365023e+18,-1.294358368,0.1995350647,9.718091125
265,1.55965365048e+18,-1.852697296,0.1718426514,10.02390518
266,1.55965365073e+18,-1.303339691,-0.02544708252,9.935139771
267,1.55965365098e+18,-1.061143341,0.06750961304,9.547296295
268,1.55965365123e+18,-1.714384918,0.5092410278,9.89427475
269,1.55965365148e+18,-1.472338257,0.1375639343,9.802814941
270,1.55965365173e+18,-1.186133423,0.04670288086,9.747130737
271,1.55965365198e+18,-1.4239888,0.09385482788,9.920470276
272,1.55965365223e+18,-1.459764404,-0.02829116821,9.952204285
273,1.55965365249e+18,-1.407223663,0.03158432007,9.823172607
274,1.55965365274e+18,-1.253044281,-0.3336561584,9.740095367
275,1.55965365299e+18,-1.676214294,-0.04909790039,9.63800766
276,1.55965365324e+18,-1.403780823,-0.1465452576,9.591304779
277,1.55965365349e+18,-1.375789032,-0.3504212952,9.916877747
278,1.55965365374e+18,-1.479822693,-0.2757266235,9.863438873
279,1.55965365399e+18,-1.540746002,-0.07514373779,9.99726059
280,1.55965365424e+18,-1.43566452,-0.08202941895,9.64968338
281,1.55965365449e+18,-1.414558411,-0.1639091492,9.827064514
282,1.55965365474e+18,-1.380878448,-0.2189945984,9.936187592
283,1.55965365499e+18,-1.397493896,-0.2757266235,9.834848328
284,1.55965365525e+18,-1.233135681,-0.3719764709,9.832453308
285,1.5596536555e+18,-1.406774597,-0.09535171509,9.722581787
286,1.55965365575e+18,-1.261426849,-0.2204914856,10.05129822
287,1.559653656e+18,-1.292262726,-0.1639091492,9.819729767
288,1.55965365625e+18,-1.19002533,-0.2412982178,9.60642334
289,1.5596536565e+18,-1.289119263,-0.1784289551,9.854307861
290,1.55965365675e+18,-1.34914444,0.1869612122,9.949060822
291,1.559653657e+18,-1.224453735,-0.2685415649,9.83454895
292,1.55965365725e+18,-1.281634827,-0.109871521,9.770781555
293,1.5596536575e+18,-1.320404205,-0.05343887329,9.634115753
294,1.55965365775e+18,-1.325942688,-0.1797761536,9.672885132
295,1.55965365801e+18,-1.316063232,-0.1152603149,10.01357666
296,1.55965365826e+18,-1.398392029,-0.1751358032,9.72812027
297,1.55965365851e+18,-1.322799225,0.08307723999,9.705367584
298,1.55965365876e+18,-1.220561829,0.03248245239,9.775571594
299,1.55965365901e+18,-1.43805954,0.09550140381,9.805659027
300,1.55965365926e+18,0.4167333984,-0.1757345581,11.5219899
301,1.55965365951e+18,-1.076112213,3.176244965,5.469925232
302,1.55965365976e+18,0.2266287231,4.251309357,9.756710815
303,1.55965366001e+18,-0.6035449219,6.20848938,6.832841034
304,1.55965366026e+18,-1.216969299,7.143894196,6.60157196
305,1.55965366051e+18,-1.163380737,7.101681976,6.905739441
306,1.55965366076e+18,-1.027613068,5.773943024,8.711584167
307,1.55965366102e+18,-0.4355941772,5.743107147,7.93664566
308,1.55965366127e+18,-0.2228865051,4.737348633,8.529263306
309,1.55965366152e+18,-0.2430944824,4.433181152,8.829089813
310,1.55965366177e+18,-0.2148033142,4.946613464,8.249345398
311,1.55965366202e+18,-0.33230896,4.38782547,9.40284668
312,1.55965366227e+18,-0.2610571289,4.348756714,8.789571991
313,1.55965366252e+18,-0.1935475159,4.444108429,8.674910431
314,1.55965366277e+18,-0.2233355713,4.096231842,8.894653473
315,1.55965366302e+18,0.07604187012,3.5500177,8.883576508
316,1.55965366327e+18,-0.05807922363,3.818409576,8.810378723
317,1.55965366352e+18,0.3522175598,3.730691986,9.119485931
318,1.55965366378e+18,-1.162781982,5.671705627,8.138126678
319,1.55965366403e+18,-1.941762085,6.068380737,7.213349762
320,1.55965366428e+18,-2.994971924,7.311246185,8.239016876
321,1.55965366453e+18,-1.267414398,3.993096313,7.344926147
322,1.55965366478e+18,-1.179547119,5.049898682,5.25482254
323,1.55965366503e+18,-0.798589325,2.931503906,11.28188919
324,1.55965366528e+18,-2.792592773,0.5899232483,6.062542877
325,1.55965366553e+18,-4.91787323,-1.587448883,12.68132904
326,1.55965366578e+18,-0.9544152832,-2.681523743,7.077282715
327,1.55965366603e+18,-0.2152523804,-2.88075943,15.6824382
328,1.55965366628e+18,-0.2766247559,-3.179238739,6.627168732
329,1.55965366654e+18,-5.51228714,-7.034621429,10.4509671
330,1.55965366679e+18,-1.915865936,-1.784738617,5.996230774
331,1.55965366704e+18,-1.828298035,-0.3674858093,11.48771118
332,1.55965366729e+18,2.843636627,-0.1499880981,6.417305145
333,1.55965366754e+18,-1.006956024,1.388512573,11.39804764
334,1.55965366779e+18,0.4610412598,-1.839225311,6.630162506
335,1.55965366804e+18,-2.111658783,1.279838562,9.468260651
336,1.55965366829e+18,4.369713135,-1.397344208,6.052364044
337,1.55965366854e+18,-0.4652325439,1.28477829,10.25382706
338,1.55965366879e+18,1.463207245,-5.265749817,7.574398956
