,Time (s),Linear Acceleration x (m/s^2),Linear Acceleration y (m/s^2),Linear Acceleration z (m/s^2)
0,1.55965655405e+18,-3.315915823,-1.00719738,-0.937277317
1,1.5596565541e+18,-2.296313047,-0.862888813,-1.768138409
2,1.55965655415e+18,-1.258561373,-0.6489570141,-2.424476147
3,1.5596565542e+18,-0.07956957817,-0.4121992588,-2.963716984
4,1.55965655425e+18,0.9769115448,-0.1800818443,-3.295613766
5,1.5596565543e+18,2.009855747,0.04610490799,-3.492193699
6,1.55965655436e+18,3.01226306,0.3052692413,-3.575425625
7,1.55965655442e+18,-6.162659645,-1.005667567,-4.303853035
8,1.55965655448e+18,-4.939255238,-0.9967150688,-3.514475822
9,1.55965655454e+18,-0.6610798836,0.2015120983,-3.239233971
10,1.5596565546e+18,-0.4422369003,0.3751804829,1.227182865
11,1.55965655465e+18,1.120283127,-0.9456350803,3.659487247
12,1.5596565547e+18,0.1626491547,-0.6915979385,1.962676287
13,1.55965655476e+18,2.812116623,-2.689227581,5.27808094
14,1.55965655481e+18,2.874097824,0.0220181942,-1.717014909
15,1.55965655487e+18,-1.902987957,-3.789879322,-0.4906697273
16,1.55965655493e+18,2.377955437,2.187237263,-1.847411633
17,1.55965655499e+18,7.111690521,5.901615143,-0.9287848473
18,1.55965655504e+18,14.34805107,2.54005003,6.003060341
19,1.5596565551e+18,10.34094048,1.606086016,4.820948601
20,1.55965655516e+18,4.465080261,-1.826285601,-0.5256409645
21,1.55965655521e+18,-1.998841286,-3.621882439,-3.410223246
22,1.55965655527e+18,-3.223343611,-4.414774895,-4.452188015
23,1.55965655533e+18,-4.329565525,-4.069265842,-5.255652905
24,1.55965655539e+18,-1.494692326,-4.065186501,-5.640298367
25,1.55965655544e+18,-1.839109659,-3.188126326,-6.091278553
26,1.55965655549e+18,-2.654282331,-1.240851164,-2.201058865
27,1.55965655555e+18,-9.655106544,2.65912056,5.919504166
28,1.55965655561e+18,-23.35593987,4.612404823,9.571732521
29,1.55965655567e+18,-36.37590408,15.02500343,-9.286487579
30,1.55965655573e+18,-6.702573299,0.4744596481,-14.16535187
31,1.55965655579e+18,17.59806824,-38.6745224,7.361840248
32,1.55965655585e+18,15.70572758,-7.69433403,-37.90627289
33,1.5596565559e+18,11.39820957,-6.892313957,-24.11663818
34,1.55965655595e+18,5.331059933,0.2937686443,-5.663702965
35,1.55965655601e+18,3.316195488,6.303613663,-10.67241478
36,1.55965655606e+18,6.582350731,-1.870148063,-4.882897377
37,1.55965655612e+18,4.007259846,-3.646060467,-1.27476716
38,1.55965655618e+18,6.16967392,-1.588490844,-4.541103363
39,1.55965655624e+18,7.172906399,-0.1231957674,-4.245496273
40,1.55965655629e+18,7.64771986,-7.166988373,-1.230060101
41,1.55965655635e+18,7.549041271,-19.65931129,0.677854538
42,1.55965655641e+18,18.68014336,-17.74949646,-0.5829343796
43,1.55965655646e+18,17.98546982,-11.1638298,5.489620209
44,1.55965655652e+18,14.82572937,-3.048514366,6.5726614
45,1.55965655658e+18,11.19493103,0.7851543427,5.401989937
46,1.55965655664e+18,12.188344,2.676931858,3.88058567
47,1.5596565567e+18,10.94771671,0.2369976044,2.220248461
48,1.55965655675e+18,7.079771042,-2.471761703,-0.05234956741
49,1.55965655681e+18,2.511324883,-5.778286934,-2.221610069
50,1.55965655686e+18,-0.6315848827,-6.629900932,-3.219017267
51,1.55965655692e+18,-4.301175117,-4.262619495,-5.569390297
52,1.55965655698e+18,-4.055745602,-2.808383942,-4.369293213
53,1.55965655704e+18,-5.096562386,-2.741632938,-4.365067005
54,1.5596565571e+18,-5.649753571,-0.4997887611,-3.117485523
55,1.55965655716e+18,-4.093482971,0.8861951828,-0.5033042431
56,1.55965655722e+18,-1.026556969,-0.02085399628,1.452191353
57,1.55965655727e+18,1.279225707,-0.6788187027,1.217057943
58,1.55965655732e+18,5.333395958,-1.294175148,2.196490049
59,1.55965655738e+18,9.665333748,2.628212452,6.971525192
60,1.55965655743e+18,9.177609444,1.859495163,10.35528946
61,1.55965655749e+18,9.798809052,-1.816399574,8.456624031
62,1.55965655754e+18,8.128193855,-3.588453293,3.75505209
63,1.5596565576e+18,6.316752911,-4.288291454,0.3680129051
64,1.55965655766e+18,5.768783092,-5.288702488,-4.265066147
65,1.55965655771e+18,7.145158291,-5.466255665,-4.064279079
66,1.55965655776e+18,4.852590561,-3.530576944,-3.18334198
67,1.55965655782e+18,-0.4283013344,-4.48095417,-6.439782143
68,1.55965655788e+18,0.3207297325,-1.93192482,-3.089078903
69,1.55965655794e+18,0.02175712585,-2.565651417,-6.843528748
70,1.55965655799e+18,-3.324353218,0.8552173376,-13.57051277
71,1.55965655805e+18,-3.519145012,2.354476213,-11.05183029
72,1.55965655811e+18,-4.464996338,3.543683052,-12.04398727
73,1.55965655817e+18,10.03235245,5.620018959,8.928800583
74,1.55965655823e+18,6.417735577,6.389872551,9.34485817
75,1.55965655829e+18,6.143252373,8.330403328,4.539165497
76,1.55965655835e+18,0.7456707954,0.7715883255,-4.352854252
77,1.5596565584e+18,-2.19201827,-0.6901865005,-0.8779592514
78,1.55965655845e+18,-6.170098305,-6.463886738,-1.728651285
79,1.55965655851e+18,-8.752108574,-10.12528419,-6.549402237
80,1.55965655856e+18,-8.292628288,-10.42194462,-11.13777733
81,1.55965655862e+18,-4.265990257,-10.53397369,-11.5122509
82,1.55965655868e+18,-1.11077261,-11.31387901,-6.881464958
83,1.55965655874e+18,9.591367722,-18.13593483,3.2918396
84,1.55965655879e+18,6.642046928,-16.93775558,-2.611126423
85,1.55965655885e+18,12.30859661,-9.124201775,4.486784458
86,1.55965655891e+18,15.70300007,-1.824576378,10.85870934
87,1.55965655896e+18,13.61083126,0.07300567627,13.35147762
88,1.55965655902e+18,4.207136154,-1.828053474,8.718738556
89,1.55965655908e+18,3.964800358,-0.5371141434,4.814790249
90,1.55965655914e+18,2.604630947,-0.556391716,2.09840107
91,1.55965655919e+18,1.230279207,-6.520562172,0.2156066895
92,1.55965655924e+18,5.521995544,-3.895326614,1.636892319
93,1.5596565593e+18,6.031812668,-0.8317680359,3.232362747
94,1.55965655935e+18,4.898600101,-0.07159614563,0.8387584686
95,1.55965655941e+18,4.126329422,3.084746361,-0.2470464706
96,1.55965655947e+18,3.158979893,3.427351713,-2.894535303
97,1.55965655953e+18,3.122156382,2.246692657,-2.864853621
98,1.55965655958e+18,0.508767128,1.413718462,-3.169449091
99,1.55965655964e+18,0.9164981842,-1.95954299,-1.665570736
100,1.55965655969e+18,3.148755074,-1.041886806,1.306763649
101,1.55965655974e+18,4.079601288,1.860114574,3.833734512
102,1.55965655979e+18,2.857435703,2.642333984,2.56890583
103,1.55965655985e+18,1.571751595,1.161233664,-1.683137894
104,1.55965655991e+18,-0.01055908203,1.000020027,-3.448091269
105,1.55965655997e+18,-1.701991558,1.684597254,-1.634946823
106,1.55965656002e+18,-2.013546944,1.33032918,-2.604809046
107,1.55965656008e+18,-4.118600368,0.7627506256,-2.168692589
108,1.55965656013e+18,-5.075662613,2.152056932,-1.470711708
109,1.55965656019e+18,-1.579276562,-0.6526122093,-3.701651573
110,1.55965656024e+18,0.9139323235,-0.9825904369,-3.516165018
111,1.5596565603e+18,-0.1726408005,-3.645840406,-4.483619213
112,1.55965656036e+18,0.9143762589,-5.467857838,4.87059927
113,1.55965656042e+18,-5.202465057,1.268295288,0.7008323073
114,1.55965656048e+18,-3.878677845,0.2252402306,1.80843401
115,1.55965656054e+18,-6.998470783,2.426657677,-2.199379206
116,1.55965656059e+18,-0.523399353,2.90731287,-3.003881693
117,1.55965656065e+18,0.2025156021,-3.025569439,-1.613217354
118,1.55965656071e+18,5.704034805,-7.699718475,4.230205536
119,1.55965656077e+18,6.679472923,-5.89431572,0.5474991798
120,1.55965656083e+18,8.764763832,-3.741042614,2.068763733
121,1.55965656089e+18,12.51889992,-5.167890549,0.3360458612
122,1.55965656094e+18,10.22170544,-6.169552803,-0.1206067204
123,1.55965656099e+18,6.806710243,-7.243992805,-3.071400404
124,1.55965656104e+18,4.063929558,-8.565124512,-5.297444344
125,1.5596565611e+18,0.4541125298,-7.176328659,-7.692670822
126,1.55965656116e+18,-1.819156289,-5.843615532,-7.920761108
127,1.55965656122e+18,0.9002703428,-4.725030899,-7.423565865
128,1.55965656127e+18,-0.03556072712,-1.968113422,-5.060806274
129,1.55965656133e+18,-4.683118343,5.106311798,1.770200729
130,1.55965656138e+18,-22.54978943,9.690044403,2.876842976
131,1.55965656144e+18,-31.58255386,12.80152416,-13.87719631
132,1.55965656149e+18,-13.00740814,-7.4662714,-16.61359406
133,1.55965656155e+18,27.84859657,-21.80955696,-4.992088795
134,1.55965656161e+18,22.73721695,-11.61894703,-5.949806213
135,1.55965656167e+18,7.313324928,-20.04876709,-10.67247391
136,1.55965656172e+18,-0.4088497162,5.857598305,-11.85466576
137,1.55965656177e+18,0.6316671371,5.900515556,-8.386143684
138,1.55965656183e+18,4.313578129,-0.8063575029,-3.224153042
139,1.55965656189e+18,0.912153244,1.256665826,0.2406094074
140,1.55965656195e+18,0.004259109497,-0.1060720235,2.472205162
141,1.55965656201e+18,-0.9583272934,0.1042977571,4.063621521
142,1.55965656207e+18,-1.515460968,-0.4034314156,2.98261857
143,1.55965656213e+18,-2.38446331,-0.7460222244,1.748243809
144,1.55965656218e+18,-0.8835916519,0.2420213223,0.501932621
145,1.55965656224e+18,-0.1010770798,-0.2667450905,0.5120768547
146,1.55965656229e+18,0.4203877449,0.4022805691,-1.272631645
147,1.55965656235e+18,0.8785085678,-0.2703896761,-1.155846119
148,1.55965656241e+18,1.51174283,0.193474412,-1.460999966
149,1.55965656247e+18,1.695955038,0.3017196357,0.8181362152
150,1.55965656252e+18,1.659057617,0.6678417325,1.62908268
151,1.55965656258e+18,2.696045876,-0.548222065,2.278413773
152,1.55965656263e+18,2.905957222,-0.9422741532,1.5759058
153,1.55965656269e+18,0.7470402122,0.2751583159,0.4978065491
154,1.55965656274e+18,1.525680065,0.1082386971,0.5258932114
155,1.5596565628e+18,1.606574059,0.007697850466,-0.5151729584
156,1.55965656286e+18,2.692389965,-0.1521622539,-0.2475585938
157,1.55965656292e+18,1.332340002,0.9546760321,-1.004589081
158,1.55965656298e+18,0.6311831474,1.998728991,-0.1630935669
159,1.55965656304e+18,1.042971134,2.096631289,-0.3786115646
160,1.55965656309e+18,0.855243206,2.028865099,-0.5055561066
161,1.55965656315e+18,1.354888916,0.09171319008,0.09628582001
162,1.5596565632e+18,0.51765728,-0.6854703426,0.2556753159
163,1.55965656326e+18,0.7280631065,-1.428903818,0.1942615509
164,1.55965656332e+18,0.6105523109,-2.387168407,0.8620471954
165,1.55965656338e+18,-0.1521525383,-1.54586339,-0.9416952133
166,1.55965656343e+18,0.1022257805,-1.450475693,-0.7397866249
167,1.55965656349e+18,-0.188931942,-1.215986013,-1.465150833
168,1.55965656354e+18,0.1012382507,-1.206652164,-0.8180909157
169,1.5596565636e+18,-0.3802080154,-1.063674212,-1.294086933
170,1.55965656365e+18,-0.09161615372,-0.8241529465,-0.8577308655
171,1.55965656371e+18,0.233932972,-0.7590942383,-0.5652470589
172,1.55965656376e+18,0.2231249809,-0.6294820309,-0.7875871658
173,1.55965656381e+18,0.4087748528,-0.4030613899,-0.3041319847
174,1.55965656387e+18,0.4365262985,0.08691525459,-0.3143029213
175,1.55965656393e+18,0.3965477943,0.06214523315,-0.08767652512
176,1.55965656399e+18,-0.02586126328,0.9745721817,0.3757538795
177,1.55965656405e+18,0.4841461182,0.773809433,1.332774162
178,1.55965656411e+18,0.5628333092,0.4796867371,0.7446379662
179,1.55965656417e+18,0.4459762573,0.2734119892,0.2357177734
180,1.55965656423e+18,0.05845689774,0.3345716,-0.3374080658
181,1.55965656428e+18,-0.04100131989,0.3967590332,-0.7882056236
182,1.55965656434e+18,0.7105894089,-0.2702801228,-0.2230844498
183,1.5596565644e+18,0.1259827614,-0.702999115,-0.6773724556
184,1.55965656446e+18,-0.4602894783,-0.5444910526,-0.6468310356
185,1.55965656452e+18,-0.13555336,-0.8354105949,-0.8726453781
186,1.55965656458e+18,-0.08088207245,-0.5184910297,-0.2412018776
187,1.55965656464e+18,-0.5662322044,0.07123923302,-0.556271553
188,1.55965656469e+18,-0.2650713921,0.1438763142,-0.07432031631
189,1.55965656474e+18,0.1131162643,0.5999426842,1.137058258
190,1.55965656479e+18,0.4520802498,0.7646176815,1.669957638
191,1.55965656485e+18,1.493050575,0.987780571,2.018292904
192,1.55965656491e+18,1.467165947,1.341136813,1.439620972
193,1.55965656497e+18,1.363577366,1.213509202,0.8585948944
194,1.55965656502e+18,2.087847233,1.461711645,1.859583855
195,1.55965656508e+18,2.180450916,0.3585723341,1.005547523
196,1.55965656513e+18,1.806268215,-0.3091270328,0.9039287567
197,1.55965656519e+18,0.6939878464,-0.5038224459,-0.7010164261
198,1.55965656524e+18,-0.2173752785,-0.5198622346,-0.02140331268
199,1.5596565653e+18,-0.436157465,-1.483094931,-0.8000297546
200,1.55965656536e+18,-0.6216186285,-1.12689662,-1.870762348
201,1.55965656542e+18,-0.4093341827,-0.7037360668,-3.612472534
202,1.55965656548e+18,-1.68130219,-0.0348572731,-2.392180443
203,1.55965656554e+18,-1.22875452,-2.471729994,-2.966001511
204,1.55965656559e+18,-1.750040531,-0.719678998,-2.243540764
205,1.55965656565e+18,-0.387046814,-1.114506721,-1.025927544
206,1.55965656571e+18,0.859005928,-0.6757341623,-1.946401596
207,1.55965656576e+18,3.384785175,-8.382380486,-6.3001194
208,1.55965656582e+18,-1.235743523,0.260273695,3.367026806
209,1.55965656587e+18,-1.246323109,0.4725270271,-0.3453044891
210,1.55965656593e+18,0.2328243256,3.669291973,-1.989175558
211,1.55965656599e+18,-2.88232708,-0.9500498772,3.851334572
212,1.55965656605e+18,1.31125164,2.308368444,1.421098232
213,1.55965656611e+18,-2.264198303,0.1962926388,-0.1395792961
214,1.55965656617e+18,-3.880774975,-0.8060977459,0.866189003
215,1.55965656623e+18,-1.877698421,-0.6674382687,0.2142314911
216,1.55965656628e+18,-1.033631802,0.5268456936,2.031391144
217,1.55965656634e+18,-7.034796238,3.727402449,8.906667709
218,1.55965656639e+18,-15.89529133,4.160914421,13.05772305
219,1.55965656645e+18,-28.94901657,8.029085159,-4.095259666
220,1.5596565665e+18,-15.62633896,-0.09484672546,-9.647255898
221,1.55965656656e+18,19.45915222,-21.58365059,24.44824028
222,1.55965656661e+18,9.528274536,-36.64392853,1.144348145
223,1.55965656667e+18,15.62651062,-5.785556316,-14.35336304
224,1.55965656673e+18,-1.162824154,3.752933979,-8.693340302
225,1.55965656679e+18,-0.7681336403,1.136595249,-11.29003143
226,1.55965656684e+18,3.604736328,-1.351238489,-3.436700821
227,1.5596565669e+18,5.39398098,-4.706250191,-1.93419981
228,1.55965656696e+18,4.722935677,-3.27578187,-4.828971386
229,1.55965656702e+18,4.909645557,-1.898790598,-3.435982704
230,1.55965656708e+18,4.596040249,2.559938908,-0.6724309921
231,1.55965656714e+18,5.584477425,2.2859025,6.234870911
232,1.55965656719e+18,11.91244984,1.151627302,5.701858521
233,1.55965656724e+18,10.36643982,6.013845921,7.760428429
234,1.55965656729e+18,9.351503372,7.883639812,5.824791908
235,1.55965656735e+18,1.848655224,11.04006672,2.307321548
236,1.55965656741e+18,-0.315533638,7.140586853,0.07249307632
237,1.55965656747e+18,1.062417507,1.509856582,-0.06543254852
238,1.55965656752e+18,2.526198387,-0.4629267454,-0.5427570343
239,1.55965656758e+18,1.733975887,-0.8526321054,-2.007842064
240,1.55965656763e+18,0.3177762032,-1.924406528,-2.032456875
241,1.55965656769e+18,-1.107980251,-0.5880448818,-2.803797722
242,1.55965656774e+18,-2.058691502,-0.4270401001,-2.011796951
243,1.5596565678e+18,-0.1786150932,-1.288476467,-1.542085171
244,1.55965656786e+18,-0.3392252922,-0.5885384679,-1.373338699
245,1.55965656792e+18,0.8889803886,0.1505236626,0.5812034607
246,1.55965656798e+18,0.1330447197,1.049422503,1.317426682
247,1.55965656803e+18,-0.2064843178,1.542443156,1.453708172
248,1.55965656809e+18,0.2927627563,2.426102877,1.654465675
249,1.55965656815e+18,0.8174843788,2.133365631,0.8200807571
250,1.55965656821e+18,0.7587313652,0.8766844273,0.7334465981
251,1.55965656827e+18,0.04918956757,-0.009498924017,-0.5730895996
252,1.55965656833e+18,-0.1171889305,0.09192204475,-0.8536944389
253,1.55965656839e+18,-0.6184802055,0.2572959661,0.005142211914
254,1.55965656844e+18,-1.561206818,2.284148693,8.36886692
255,1.55965656849e+18,1.350432873,1.965519309,17.89464188
256,1.55965656854e+18,9.949886322,2.342144251,18.33292198
257,1.5596565686e+18,15.01961422,2.403724194,0.6333737373
258,1.55965656866e+18,6.82319355,-2.568361044,-5.351730347
259,1.55965656872e+18,1.593733191,-5.648771286,-8.819925308
260,1.55965656877e+18,-1.035550594,-6.041410446,-7.879673004
261,1.55965656883e+18,1.293216586,-7.688069344,-3.020218134
262,1.55965656888e+18,-0.0729881525,-6.353165627,-4.403372765
263,1.55965656894e+18,-1.414981365,-4.803543568,-3.017309666
264,1.55965656899e+18,-2.760663748,-2.520764351,-3.157061577
265,1.55965656905e+18,-2.672864199,-1.663427353,-2.503508091
266,1.55965656911e+18,-2.825805902,-1.502696514,-2.806959629
267,1.55965656917e+18,0.2932503223,-3.262351513,-2.782042503
268,1.55965656923e+18,2.289018631,-5.721038818,-4.309453487
269,1.55965656929e+18,4.366498947,-6.485929966,-4.425619602
270,1.55965656934e+18,3.890599489,-3.291821957,-2.960421562
271,1.5596565694e+18,-0.283645153,0.9173455238,-0.6235003471
272,1.55965656946e+18,-2.454082489,0.5785355568,1.963488102
273,1.55965656952e+18,1.375599027,-0.4167070389,0.3718042374
274,1.55965656958e+18,3.659410477,-1.562256098,2.313051224
275,1.55965656963e+18,1.373006105,-2.226603031,0.1197929382
276,1.55965656968e+18,5.968625546,-2.564023495,1.91760397
277,1.55965656974e+18,1.285134792,0.08776961267,4.097159863
278,1.55965656979e+18,3.465739727,-3.349750519,2.192379475
279,1.55965656985e+18,0.6511735916,-1.19968152,0.97585392
280,1.55965656991e+18,1.285628796,-1.538677692,-0.6158361435
281,1.55965656997e+18,-0.3569083214,-1.471370697,-0.5199885368
282,1.55965657002e+18,0.001924037933,-2.017744541,-0.3645997047
283,1.55965657008e+18,2.720610619,-3.923204422,0.3323488235
284,1.55965657013e+18,-0.100587368,-0.8769416809,-0.6879549026
285,1.55965657019e+18,-0.5404372215,-0.4311485291,-1.254789114
286,1.55965657024e+18,-0.09342288971,-0.5387029648,-0.565905571
287,1.5596565703e+18,-0.3125567436,-0.5059185028,0.001730918884
288,1.55965657036e+18,0.8086781502,-0.9660005569,0.6897857189
289,1.55965657042e+18,0.7049081326,-0.5326833725,-0.1809988022
290,1.55965657048e+18,0.2283270359,-0.4180860519,-0.04418826103
291,1.55965657054e+18,-0.2721297741,0.09201812744,-0.6549293995
292,1.5596565706e+18,0.2968707085,-0.5995073318,-0.368062973
293,1.55965657066e+18,-0.5240392685,-0.1944637299,-0.9343292713
294,1.55965657072e+18,-1.063256741,-0.5258388519,-1.615481496
295,1.55965657078e+18,-0.5988607407,-0.7886219025,-1.049509287
296,1.55965657083e+18,-0.6665127277,-0.703040123,-1.242591858
297,1.55965657088e+18,-0.3667063713,-0.6609220505,-0.6320266724
298,1.55965657093e+18,-0.2971439362,-0.7013502121,-0.4479622841
299,1.55965657099e+18,-0.4424638748,-0.3095874786,-0.5428364277
300,1.55965657104e+18,-0.1644761562,-0.4123954773,-0.3611571789
301,1.5596565711e+18,-0.2151122093,-0.1825199127,-0.4924883842
302,1.55965657116e+18,-0.09761190414,-0.1801013947,-0.3538210392
303,1.55965657122e+18,0.3677978516,-0.3134384155,0.2265899181
304,1.55965657127e+18,0.8351759911,-0.0126953125,1.031214476
305,1.55965657133e+18,0.7733852863,0.01554870605,1.959938765
306,1.55965657138e+18,0.4363152981,0.03129291534,2.209213018
307,1.55965657144e+18,0.4261460304,-0.6969881058,2.303091526
308,1.55965657149e+18,0.9468407631,-0.9895820618,1.771288395
309,1.55965657155e+18,0.8706898689,-1.821118832,1.41422987
310,1.55965657161e+18,0.538175106,-1.331036091,0.08257627487
311,1.55965657167e+18,0.1224479675,-1.309380531,-0.7857642174
312,1.55965657172e+18,0.2884626389,-0.9355874062,-1.472735882
313,1.55965657177e+18,0.3440923691,-0.7356009483,-1.378060818
314,1.55965657183e+18,0.03628873825,0.02921533585,-1.701631546
315,1.55965657189e+18,0.01943397522,0.0251147747,-2.410973072
316,1.55965657195e+18,-0.4640572071,0.6526794434,-2.513352871
317,1.55965657201e+18,-0.6577830315,0.5024058819,-1.303076267
318,1.55965657207e+18,-0.9861049652,0.7296694517,-0.0867729187
319,1.55965657213e+18,-0.4219112396,1.075604677,1.242660522
320,1.55965657218e+18,-0.5066242218,0.8828104734,1.466178894
321,1.55965657224e+18,-0.6288523674,1.041652679,0.784945488
322,1.55965657229e+18,-0.4928236008,0.7730136514,1.24716568
323,1.55965657235e+18,-0.504488945,1.124721289,0.9721927643
324,1.55965657241e+18,-0.1363301277,1.31997788,0.9792261124
325,1.55965657247e+18,-0.1645772457,1.107090116,1.001551628
326,1.55965657252e+18,-0.6173713207,0.9221339822,0.2387876511
327,1.55965657258e+18,0.3439850807,0.7443779707,0.2143068314
328,1.55965657263e+18,0.3082499504,0.4660118222,-0.609003067
329,1.55965657269e+18,-0.4409389496,0.4469314814,-1.391278267
