"Time (s)","Magnetic field x (µT)","Magnetic field y (µT)","Magnetic field z (µT)"
5.999558200E-2,6.420000076E0,-3.605999756E1,-1.800000000E1
1.199895230E-1,7.019999981E0,-3.588000107E1,-1.835999870E1
1.799826900E-1,6.179999828E0,-3.570000076E1,-1.818000031E1
2.399757230E-1,5.519999981E0,-3.671999741E1,-1.847999954E1
2.999685270E-1,5.400000095E0,-3.581999969E1,-1.757999992E1
3.599610250E-1,4.559999943E0,-3.702000046E1,-1.692000008E1
4.199533890E-1,3.299999952E0,-3.755999756E1,-1.637999916E1
4.799459850E-1,-3.599999845E-1,-3.750000000E1,-1.488000011E1
5.399384490E-1,-6.119999886E0,-3.768000031E1,-1.205999947E1
5.999309790E-1,-1.235999966E1,-3.545999908E1,-9.000000000E0
6.599234090E-1,-1.979999924E1,-3.252000046E1,-4.079999924E0
7.199159060E-1,-2.568000031E1,-2.723999977E1,-4.199999809E0
7.799081700E-1,-2.951999855E1,-2.243999863E1,-1.620000005E0
8.399006000E-1,-3.323999786E1,-1.631999969E1,-1.079999924E0
8.998931300E-1,-3.479999924E1,-1.146000004E1,-4.259999752E0
9.598856600E-1,-3.605999756E1,-4.319999695E0,-6.059999943E0
1.019878158E0,-3.665999985E1,3.059999943E0,-9.179999352E0
1.079871157E0,-3.431999969E1,1.043999958E1,-1.067999935E1
1.139864389E0,-3.113999939E1,1.673999977E1,-1.493999958E1
1.199857519E0,-2.687999916E1,2.184000015E1,-1.668000031E1
1.259850649E0,-2.189999962E1,2.687999916E1,-1.757999992E1
1.319843712E0,-1.535999966E1,3.059999847E1,-1.685999870E1
1.379836409E0,-9.779999733E0,3.402000046E1,-1.529999924E1
1.439828740E0,-5.039999962E0,3.665999985E1,-1.319999981E1
1.499821270E0,2.399999946E-1,3.755999756E1,-1.235999966E1
1.559813800E0,4.859999657E0,3.738000107E1,-1.109999943E1
1.619806364E0,7.919999599E0,3.797999954E1,-1.007999992E1
1.679798795E0,8.399999619E0,3.773999786E1,-9.659999847E0
1.739791325E0,1.001999950E1,3.761999893E1,-9.779999733E0
1.799783656E0,1.038000011E1,3.713999939E1,-8.699999809E0
1.859776087E0,9.179999352E0,3.791999817E1,-7.019999981E0
1.919768551E0,6.659999847E0,3.845999908E1,-6.779999733E0
1.979761147E0,5.099999905E0,3.827999878E1,-6.779999733E0
2.039753611E0,2.879999876E0,3.839999771E1,-7.500000000E0
2.099746308E0,1.799999923E-1,3.797999954E1,-8.220000267E0
2.159740073E0,-1.259999990E0,3.750000000E1,-1.061999989E1
2.219734469E0,-3.899999857E0,3.605999756E1,-1.277999973E1
2.279728733E0,-4.259999752E0,3.534000015E1,-1.469999981E1
2.339723129E0,-6.539999962E0,3.443999863E1,-1.529999924E1
2.399717227E0,-8.279999733E0,3.413999939E1,-1.361999989E1
2.459710224E0,-1.163999939E1,3.359999847E1,-1.301999950E1
2.519702488E0,-1.421999931E1,3.227999878E1,-1.373999977E1
2.579694985E0,-1.769999886E1,2.934000015E1,-1.542000008E1
2.639687449E0,-2.010000038E1,2.489999962E1,-2.045999908E1
2.699679979E0,-2.045999908E1,2.255999947E1,-2.279999924E1
2.759672442E0,-1.889999962E1,2.250000000E1,-2.585999870E1
2.819664972E0,-1.379999924E1,2.315999985E1,-2.765999985E1
2.879657336E0,-9.119999886E0,2.519999886E1,-2.868000031E1
2.939649700E0,-2.220000029E0,2.513999939E1,-2.993999863E1
2.999642165E0,3.659999847E0,2.573999977E1,-3.059999847E1
3.059634695E0,9.359999657E0,2.460000038E1,-2.993999863E1
3.119627225E0,1.367999935E1,2.195999908E1,-3.077999878E1
3.179619723E0,1.745999908E1,1.745999908E1,-3.209999847E1
3.239612855E0,2.135999870E1,1.080000019E1,-3.257999802E1
3.299606053E0,2.537999916E1,4.259999752E0,-3.179999924E1
3.350198193E0,2.615999985E1,-3.599999845E-1,-3.227999878E1
3.410191324E0,2.405999947E1,-6.239999771E0,-3.347999954E1
3.470184554E0,2.369999886E1,-1.163999939E1,-3.311999893E1
3.530177118E0,2.231999969E1,-1.727999878E1,-3.143999863E1
3.590169549E0,2.057999992E1,-2.261999893E1,-2.951999855E1
3.650162013E0,1.727999878E1,-2.687999916E1,-2.813999939E1
3.710154476E0,1.181999969E1,-2.897999954E1,-2.771999931E1
3.770146907E0,5.339999676E0,-2.868000031E1,-3.017999840E1
3.830139470E0,-3.419999838E0,-1.794000053E1,-3.570000076E1
3.890131900E0,-1.115999985E1,-1.199999973E-1,-3.773999786E1
3.950124231E0,-1.637999916E1,9.179999352E0,-3.402000046E1
4.010116662E0,-1.926000023E1,8.880000114E0,-3.336000061E1
4.070109192E0,-2.369999886E1,1.061999989E1,-2.813999939E1
4.130101656E0,-2.765999985E1,1.061999989E1,-2.477999878E1
4.190094186E0,-2.861999893E1,7.139999866E0,-2.495999908E1
4.250087017E0,-2.915999985E1,6.599999666E-1,-2.501999855E1
4.310080949E0,-2.742000008E1,-6.480000019E0,-2.645999908E1
4.370075515E0,-2.700000000E1,-1.223999977E1,-2.477999878E1
4.430070014E0,-2.759999847E1,-1.679999924E1,-2.147999954E1
4.490064547E0,-2.759999847E1,-1.734000015E1,-2.057999992E1
4.550058778E0,-2.927999878E1,-1.415999985E1,-2.081999969E1
4.610051809E0,-3.209999847E1,-3.539999962E0,-2.243999863E1
4.670044107E0,-2.526000023E1,9.239999771E0,-2.837999916E1
4.730036670E0,-2.279999924E1,1.860000038E1,-2.693999863E1
4.790029134E0,-2.579999924E1,1.853999901E1,-2.418000031E1
4.850021664E0,-2.639999962E1,1.644000053E1,-2.513999939E1
4.910014128E0,-3.065999985E1,1.523999977E1,-2.135999870E1
4.970006658E0,-3.215999985E1,1.235999966E1,-2.195999908E1
5.029998922E0,-3.131999969E1,8.760000229E0,-2.411999893E1
5.089991419E0,-3.042000008E1,3.720000029E0,-2.735999870E1
5.149983883E0,-2.963999939E1,-1.860000014E0,-2.777999878E1
5.209976413E0,-3.173999977E1,-5.759999752E0,-2.639999962E1
5.269968877E0,-3.300000000E1,-5.339999676E0,-2.489999962E1
5.329961575E0,-3.318000031E1,1.500000000E0,-2.693999863E1
5.389955240E0,-3.137999916E1,1.475999928E1,-2.447999954E1
5.449949570E0,-3.209999847E1,2.189999962E1,-1.745999908E1
5.509943900E0,-3.185999870E1,2.489999962E1,-1.373999977E1
5.569938230E0,-3.377999878E1,2.261999893E1,-1.367999935E1
5.629932393E0,-3.623999786E1,1.710000038E1,-1.505999947E1
5.689925425E0,-3.791999817E1,1.038000011E1,-1.715999985E1
5.749917756E0,-3.936000061E1,2.579999924E0,-1.734000015E1
5.809910186E0,-3.900000000E1,-5.400000095E0,-1.697999954E1
5.869902716E0,-3.665999985E1,-1.055999947E1,-1.985999870E1
5.929895180E0,-3.395999908E1,-1.350000000E1,-2.297999954E1
5.989887710E0,-3.077999878E1,-1.325999928E1,-2.801999855E1
6.049880240E0,-2.513999939E1,-1.031999969E1,-3.377999878E1
6.109872670E0,-1.829999924E1,1.799999952E0,-3.977999878E1
6.169864934E0,-2.123999977E1,1.811999893E1,-3.407999802E1
6.229857464E0,-1.446000004E1,2.279999924E1,-3.389999771E1
6.289849928E0,-2.237999916E1,2.681999969E1,-2.627999878E1
6.349842458E0,-3.005999947E1,2.435999870E1,-1.973999977E1
6.409834988E0,-3.329999924E1,2.243999863E1,-1.907999992E1
6.469828154E0,-3.654000092E1,1.703999901E1,-1.673999977E1
6.529821285E0,-3.815999985E1,9.719999313E0,-1.811999893E1
6.589814481E0,-3.900000000E1,2.099999905E0,-1.865999985E1
6.649807545E0,-3.857999802E1,-3.839999914E0,-1.853999901E1
6.709800675E0,-3.797999954E1,-8.220000267E0,-1.943999863E1
6.769793173E0,-3.852000046E1,-7.799999714E0,-2.129999924E1
6.829785637E0,-3.654000092E1,-2.399999946E-1,-2.687999916E1
6.889778134E0,-3.689999771E1,1.493999958E1,-2.135999870E1
6.949770730E0,-3.491999817E1,2.603999901E1,-1.169999981E1
7.009763194E0,-3.300000000E1,3.023999977E1,-9.119999886E0
7.069755724E0,-3.461999893E1,2.850000000E1,-1.115999985E1
7.129748121E0,-3.720000076E1,2.495999908E1,-1.265999985E1
7.189740486E0,-4.121999741E1,1.829999924E1,-1.115999985E1
7.249732850E0,-4.320000076E1,1.007999992E1,-1.247999954E1
7.309725414E0,-4.320000076E1,4.319999695E0,-1.457999992E1
7.369717944E0,-4.205999756E1,-1.199999973E-1,-1.865999985E1
7.429710474E0,-3.965999985E1,-1.740000010E0,-2.231999969E1
7.489703339E0,-3.731999969E1,2.939999819E0,-2.093999863E1
7.549697403E0,-4.002000046E1,1.469999981E1,-1.692000008E1
7.609691700E0,-3.750000000E1,2.579999924E1,-1.007999992E1
7.669686030E0,-3.641999817E1,3.095999908E1,-1.259999990E0
7.729680360E0,-3.521999741E1,3.119999886E1,-1.199999928E0
7.789674224E0,-3.618000031E1,3.107999992E1,1.740000010E0
7.849667022E0,-3.845999908E1,2.879999924E1,1.199999928E0
7.909659353E0,-3.984000015E1,2.555999947E1,-1.319999933E0
7.969651784E0,-4.200000000E1,1.992000008E1,-6.119999886E0
8.029644248E0,-4.295999908E1,1.319999981E1,-1.313999939E1
8.089636844E0,-4.121999741E1,7.259999752E0,-2.081999969E1
8.149629208E0,-3.539999771E1,4.019999981E0,-2.693999863E1
8.209621738E0,-3.150000000E1,1.715999985E1,-2.676000023E1
8.269614102E0,-3.311999893E1,3.161999893E1,-1.193999958E1
8.329606500E0,-2.855999947E1,3.773999786E1,1.199999973E-1
8.389598931E0,-2.795999908E1,3.815999985E1,3.299999952E0
8.449591527E0,-3.053999901E1,3.593999863E1,4.199999869E-1
8.509583991E0,-3.486000061E1,3.143999863E1,-2.700000048E0
8.569576622E0,-3.738000107E1,2.759999847E1,-7.379999638E0
8.629569821E0,-4.020000076E1,2.189999962E1,-9.359999657E0
8.689563051E0,-4.134000015E1,1.931999969E1,-9.779999733E0
8.749556115E0,-4.025999832E1,1.926000023E1,-1.007999992E1
8.809549245E0,-3.779999924E1,2.550000000E1,-1.121999931E1
8.869542276E0,-2.957999992E1,3.413999939E1,-7.980000019E0
8.929534674E0,-2.165999985E1,4.193999863E1,3.419999838E0
8.989527105E0,-1.439999962E1,4.475999832E1,7.980000019E0
9.049519735E0,-1.529999924E1,4.397999954E1,9.840000153E0
9.109512265E0,-1.583999920E1,4.434000015E1,8.880000114E0
9.169504795E0,-2.069999886E1,4.200000000E1,4.319999695E0
9.229497325E0,-2.705999947E1,3.809999847E1,-1.559999943E0
9.289489622E0,-3.354000092E1,3.204000092E1,-7.859999657E0
9.349481853E0,-3.611999893E1,2.568000031E1,-1.505999947E1
9.409474317E0,-3.497999954E1,2.039999962E1,-2.076000023E1
9.469466847E0,-3.161999893E1,2.003999901E1,-2.376000023E1
9.529459344E0,-2.687999916E1,3.101999855E1,-1.979999924E1
9.589451940E0,-2.015999985E1,4.097999954E1,-8.220000267E0
9.649445239E0,-1.001999950E1,4.547999954E1,4.019999981E0
9.709439471E0,-2.099999905E0,4.697999954E1,9.779999733E0
9.769433937E0,-3.119999886E0,4.691999817E1,7.440000057E0
9.829428503E0,-9.119999886E0,4.679999924E1,1.079999924E0
9.889422969E0,-1.734000015E1,4.331999969E1,-6.719999790E0
9.949416767E0,-2.477999878E1,3.629999924E1,-1.439999962E1
1.000940940E1,-3.065999985E1,2.957999992E1,-1.902000046E1
1.006940186E1,-3.461999893E1,2.453999901E1,-2.021999931E1
1.012939439E1,-3.420000076E1,2.226000023E1,-2.135999870E1
1.018938699E1,-2.850000000E1,2.442000008E1,-2.261999893E1
1.024937942E1,-1.943999863E1,3.839999771E1,-1.313999939E1
1.030937195E1,-8.220000267E0,4.620000076E1,-5.399999619E-1
1.036936435E1,-2.339999914E0,4.691999817E1,1.679999948E0
1.042935661E1,-6.420000076E0,4.727999878E1,-4.799999893E-1
1.048934904E1,-1.085999966E1,4.518000031E1,-5.460000038E0
1.054934157E1,-1.637999916E1,4.313999939E1,-1.134000015E1
1.060933410E1,-2.123999977E1,3.731999969E1,-1.763999939E1
1.066932670E1,-2.387999916E1,3.288000107E1,-2.171999931E1
1.072931976E1,-2.442000008E1,3.077999878E1,-2.526000023E1
1.077934390E1,-2.387999916E1,2.784000015E1,-2.826000023E1
1.083933829E1,-2.568000031E1,2.837999916E1,-2.597999954E1
1.089933256E1,-1.979999924E1,3.293999863E1,-2.334000015E1
1.095932682E1,-1.061999989E1,4.170000076E1,-1.655999947E1
1.101932075E1,-1.139999986E0,4.620000076E1,-8.579999924E0
1.107931355E1,6.599999905E0,4.655999756E1,-4.079999924E0
1.113930581E1,4.799999714E0,4.709999847E1,-6.779999733E0
1.119929841E1,-1.259999990E0,4.602000046E1,-1.085999966E1
1.125929087E1,-8.699999809E0,4.350000000E1,-1.685999870E1
1.131928340E1,-1.505999947E1,3.845999908E1,-2.237999916E1
1.137927586E1,-1.926000023E1,3.431999969E1,-2.627999878E1
1.143926846E1,-2.250000000E1,3.000000000E1,-2.789999962E1
1.149926073E1,-2.442000008E1,2.819999886E1,-2.945999908E1
1.155925306E1,-2.123999977E1,2.789999962E1,-2.868000031E1
1.161924559E1,-1.385999966E1,3.768000031E1,-2.429999924E1
1.167923812E1,-4.139999866E0,4.529999924E1,-1.373999977E1
1.173923058E1,3.480000019E0,4.691999817E1,-8.460000038E0
1.179922324E1,3.299999952E0,4.673999786E1,-6.059999943E0
1.185921654E1,-6.599999666E-1,4.697999954E1,-6.899999619E0
1.191920971E1,-4.799999714E0,4.589999771E1,-1.103999996E1
1.197920284E1,-1.223999977E1,4.277999878E1,-1.583999920E1
1.203919597E1,-2.231999969E1,3.629999924E1,-2.015999985E1
1.209918896E1,-2.795999908E1,2.963999939E1,-2.315999985E1
1.215918133E1,-3.029999924E1,2.526000023E1,-2.550000000E1
1.221917379E1,-2.753999901E1,2.531999969E1,-2.771999931E1
1.227916632E1,-1.860000038E1,3.042000008E1,-2.669999886E1
1.233915885E1,-1.475999928E1,4.091999817E1,-1.488000011E1
1.239915135E1,-5.400000095E0,4.637999725E1,-2.339999914E0
1.245914391E1,1.559999943E0,4.745999908E1,2.220000029E0
1.251913628E1,-1.139999986E0,4.721999741E1,1.919999957E0
1.257912858E1,-6.480000019E0,4.697999954E1,-5.999999642E-1
1.263912101E1,-1.242000008E1,4.487999725E1,-6.659999847E0
1.269911357E1,-1.865999985E1,4.152000046E1,-1.146000004E1
1.275910597E1,-2.495999908E1,3.695999908E1,-1.517999935E1
1.281909850E1,-2.807999992E1,3.270000076E1,-1.721999931E1
1.287909173E1,-2.471999931E1,3.377999878E1,-1.829999924E1
1.293908593E1,-2.076000023E1,3.827999878E1,-1.781999969E1
1.299908019E1,-1.050000000E1,4.320000076E1,-1.121999931E1
1.305907462E1,-2.220000029E0,4.697999954E1,-3.539999962E0
1.311906892E1,3.839999914E0,4.752000046E1,-2.399999857E0
1.317906252E1,1.799999923E-1,4.721999741E1,-3.839999914E0
1.323905502E1,-4.139999866E0,4.637999725E1,-4.920000076E0
1.329904741E1,-1.127999973E1,4.577999878E1,-7.259999752E0
1.335903984E1,-1.613999939E1,4.386000061E1,-8.880000114E0
1.341903234E1,-1.769999886E1,4.229999924E1,-1.157999992E1
1.347902487E1,-1.739999962E1,4.218000031E1,-1.211999989E1
1.353901740E1,-1.655999947E1,4.187999725E1,-1.338000011E1
1.359900987E1,-1.139999962E1,4.127999878E1,-1.007999992E1
1.365900223E1,-4.259999752E0,4.668000031E1,-3.539999962E0
1.371899463E1,3.599999905E0,4.655999756E1,7.199999690E-1
1.377898716E1,7.679999828E0,4.686000061E1,8.399999738E-1
1.383897969E1,2.879999876E0,4.739999771E1,-1.860000014E0
1.389897215E1,-2.039999962E0,4.721999741E1,-6.000000000E0
1.395896495E1,-8.099999428E0,4.577999878E1,-9.899999619E0
1.401895821E1,-1.169999981E1,4.397999954E1,-1.361999989E1
1.407895134E1,-1.392000008E1,4.193999863E1,-1.475999928E1
1.413894441E1,-1.427999973E1,4.241999817E1,-1.397999954E1
1.419893760E1,-1.103999996E1,4.391999817E1,-1.109999943E1
1.425893040E1,-5.219999790E0,4.613999939E1,-6.659999847E0
1.431892273E1,2.279999971E0,4.715999985E1,1.379999995E0
1.437891513E1,1.115999985E1,4.602000046E1,5.759999752E0
1.443890769E1,9.960000038E0,4.691999817E1,4.199999809E0
1.449890016E1,2.399999857E0,4.793999863E1,7.199999690E-1
1.455889279E1,-7.199999809E0,4.679999924E1,-2.639999866E0
1.461888525E1,-1.583999920E1,4.404000092E1,-6.539999962E0
1.467887765E1,-2.034000015E1,4.223999786E1,-8.340000153E0
1.473886995E1,-2.345999908E1,3.936000061E1,-1.019999981E1
1.479886251E1,-2.123999977E1,4.002000046E1,-1.073999977E1
1.485885494E1,-1.163999939E1,4.163999939E1,-9.119999886E0
1.491884751E1,-4.739999771E0,4.703999710E1,-1.620000005E0
1.497884007E1,6.179999828E0,4.650000000E1,3.359999895E0
1.503883377E1,9.599999428E0,4.650000000E1,1.500000000E0
1.509882810E1,3.599999905E0,4.793999863E1,-2.939999819E0
1.515882263E1,-4.440000057E0,4.631999969E1,-9.599999428E0
1.521881713E1,-1.307999992E1,4.350000000E1,-1.409999943E1
1.527881163E1,-1.926000023E1,3.936000061E1,-1.842000008E1
1.533880503E1,-2.219999886E1,3.575999832E1,-1.926000023E1
1.539879746E1,-2.255999947E1,3.431999969E1,-1.973999977E1
1.545878996E1,-1.763999939E1,3.636000061E1,-1.968000031E1
1.551878249E1,-8.460000038E0,4.181999969E1,-1.692000008E1
1.557877502E1,-1.799999923E-1,4.643999863E1,-3.659999847E0
1.563876755E1,8.519999504E0,4.602000046E1,-4.199999869E-1
1.569876014E1,4.679999828E0,4.739999771E1,-1.199999928E0
1.575875244E1,-2.279999971E0,4.715999985E1,-3.119999886E0
1.581874484E1,-1.026000023E1,4.602000046E1,-7.859999657E0
1.587873734E1,-1.734000015E1,4.241999817E1,-1.235999966E1
1.593872983E1,-2.418000031E1,3.695999908E1,-1.571999931E1
1.599872233E1,-2.742000008E1,3.179999924E1,-1.955999947E1
1.605871493E1,-2.837999916E1,2.868000031E1,-2.310000038E1
1.611870816E1,-2.268000031E1,3.011999893E1,-2.526000023E1
1.617870232E1,-1.500000000E1,3.755999756E1,-1.979999924E1
1.623869659E1,-6.779999733E0,4.577999878E1,-9.059999466E0
1.629869092E1,-1.199999928E0,4.686000061E1,-3.779999971E0
1.635868518E1,2.460000038E0,4.757999802E1,-1.620000005E0
1.641867868E1,-2.819999933E0,4.661999893E1,-3.659999847E0
1.647867114E1,-7.919999599E0,4.655999756E1,-6.359999657E0
1.653866351E1,-1.434000015E1,4.379999924E1,-1.050000000E1
1.659865604E1,-2.039999962E1,4.002000046E1,-1.415999985E1
1.665864854E1,-2.561999893E1,3.539999771E1,-1.727999878E1
1.671864106E1,-2.603999901E1,3.300000000E1,-2.063999939E1
1.677863360E1,-2.250000000E1,3.288000107E1,-2.069999886E1
1.683862609E1,-1.013999939E1,4.061999893E1,-1.644000053E1
1.689861839E1,-4.980000019E0,4.613999939E1,-5.039999962E0
1.695861092E1,2.279999971E0,4.668000031E1,-2.519999981E0
1.701860345E1,-2.099999905E0,4.691999817E1,-3.539999962E0
1.707859598E1,-6.899999619E0,4.643999863E1,-7.139999866E0
1.713858851E1,-1.325999928E1,4.421999741E1,-1.193999958E1
1.719858134E1,-2.010000038E1,3.887999725E1,-1.800000000E1
1.725857444E1,-2.526000023E1,3.209999847E1,-2.310000038E1
1.731856757E1,-2.789999962E1,2.634000015E1,-2.639999962E1
1.737856070E1,-2.843999863E1,2.387999916E1,-2.807999992E1
1.743855390E1,-2.742000008E1,2.345999908E1,-2.850000000E1
1.749854666E1,-2.010000038E1,3.126000023E1,-2.477999878E1
1.755853906E1,-1.247999954E1,4.223999786E1,-1.535999966E1
1.761853152E1,-4.079999924E0,4.673999786E1,-6.239999771E0
1.767852405E1,4.799999893E-1,4.739999771E1,-2.639999866E0
1.773851645E1,-2.879999876E0,4.721999741E1,-4.739999771E0
1.779850905E1,-7.500000000E0,4.620000076E1,-7.079999924E0
1.785850151E1,-1.535999966E1,4.397999954E1,-1.085999966E1
1.791849391E1,-2.160000038E1,3.918000031E1,-1.451999950E1
1.797848634E1,-2.537999916E1,3.557999802E1,-1.889999962E1
1.803847887E1,-2.495999908E1,3.329999924E1,-2.345999908E1
1.809847133E1,-2.297999954E1,3.155999947E1,-2.255999947E1
1.815846393E1,-1.193999958E1,3.761999893E1,-2.052000046E1
1.821827170E1,-8.220000267E0,4.547999954E1,-6.359999657E0
1.827826533E1,7.799999714E-1,4.715999985E1,2.399999946E-1
1.833825966E1,-1.620000005E0,4.739999771E1,-6.599999666E-1
1.839825399E1,-6.599999905E0,4.637999725E1,-5.940000057E0
1.845824825E1,-1.188000011E1,4.379999924E1,-1.427999973E1
1.851824252E1,-1.607999992E1,3.881999969E1,-2.105999947E1
1.857823558E1,-2.027999878E1,3.395999908E1,-2.621999931E1
1.863822791E1,-2.381999969E1,3.005999947E1,-2.784000015E1
1.869822034E1,-2.489999962E1,2.765999985E1,-2.807999992E1
1.875821281E1,-2.219999886E1,2.969999886E1,-2.657999992E1
1.881820534E1,-1.734000015E1,3.515999985E1,-2.231999969E1
1.887819787E1,-9.359999657E0,4.427999878E1,-1.217999935E1
1.893819040E1,-8.999999762E-1,4.721999741E1,-1.079999924E0
1.899818276E1,3.480000019E0,4.793999863E1,1.979999900E0
1.905817516E1,-1.979999900E0,4.841999817E1,-1.679999948E0
1.911816756E1,-7.139999866E0,4.637999725E1,-6.779999733E0
1.917816009E1,-1.505999947E1,4.265999985E1,-1.253999996E1
1.923815255E1,-2.063999939E1,3.743999863E1,-1.973999977E1
1.929814514E1,-2.573999977E1,3.017999840E1,-2.489999962E1
1.935813818E1,-2.771999931E1,2.663999939E1,-2.693999863E1
1.941813148E1,-2.669999886E1,2.442000008E1,-2.759999847E1
1.947812454E1,-2.052000046E1,3.204000092E1,-2.753999901E1
1.953811767E1,-1.427999973E1,3.929999924E1,-1.818000031E1
1.959811073E1,-7.559999943E0,4.547999954E1,-5.579999924E0
1.965810337E1,3.000000000E0,4.739999771E1,-2.399999946E-1
1.971809560E1,2.279999971E0,4.787999725E1,-1.979999900E0
1.977808813E1,-5.999999642E-1,4.703999710E1,-6.119999886E0
1.983808066E1,-7.379999638E0,4.427999878E1,-1.343999958E1
1.989807319E1,-1.865999985E1,3.905999756E1,-1.907999992E1
1.995806565E1,-2.711999893E1,2.897999954E1,-2.561999893E1
2.001805818E1,-2.609999847E1,2.279999924E1,-3.053999901E1
2.007805051E1,-2.645999908E1,2.273999977E1,-3.185999870E1
2.013804288E1,-1.776000023E1,2.892000008E1,-2.903999901E1
2.019803541E1,-9.779999733E0,3.959999847E1,-2.087999916E1
2.025802787E1,-2.279999971E0,4.673999786E1,-7.139999866E0
2.031802040E1,4.920000076E0,4.727999878E1,-2.460000038E0
2.037801326E1,7.199999690E-1,4.734000015E1,-3.720000029E0
2.043800730E1,-5.099999905E0,4.620000076E1,-7.679999828E0
2.049800180E1,-1.050000000E1,4.434000015E1,-1.373999977E1
2.055799640E1,-1.626000023E1,3.965999985E1,-1.805999947E1
